0 	0.252549 	1.51402 	-1.9108e-05 	0
0.000571357 	0 	18.5312 	-0.00227043 	0
0.00114271 	0 	20.8239 	-0.00573161 	0
0.00171407 	0 	21.9743 	-0.0100354 	0
0.00228543 	0 	22.7522 	-0.0148343 	0
0.00285678 	0 	23.3638 	-0.0198995 	0
0.00342814 	0 	23.8841 	-0.0250941 	0
0.0039995 	0 	24.3522 	-0.0303175 	0
0.00457085 	0 	24.7881 	-0.0354983 	0
0.00514221 	0 	25.2043 	-0.0405764 	0
0.00571357 	0 	25.609 	-0.0455037 	0
0.00628492 	0 	26.0081 	-0.0502403 	0
0.00685628 	0 	26.4057 	-0.0547512 	0
0.00742764 	0 	26.8048 	-0.0590065 	0
0.00799899 	0 	27.2083 	-0.062955 	0
0.00857035 	0 	27.6176 	-0.0666123 	0
0.00914171 	0 	28.0355 	-0.0699081 	0
0.00971307 	0 	28.4624 	-0.0728787 	0
0.0102844 	0 	28.9012 	-0.0754646 	0
0.0108558 	0 	29.3535 	-0.0776617 	0
0.0114271 	0 	29.8203 	-0.0794901 	0
0.0119985 	0 	30.3066 	-0.0809989 	0
0.0125698 	0 	30.7306 	-0.0819639 	0
0.0131412 	-4.06098e-15 	31.422 	-0.0828165 	0
0.0137126 	0 	32.0661 	-0.0828185 	0
0.0142839 	0 	32.6987 	-0.0819486 	0
0.0148553 	0 	33.3076 	-0.0804903 	0
0.0154266 	2.04544e-15 	33.8901 	-0.0787023 	0
0.015998 	0 	34.4505 	-0.0766049 	0
0.0165693 	0 	35.0062 	-0.0740613 	0
0.0171407 	0 	35.5712 	-0.0708729 	0
0.0177121 	0 	36.1533 	-0.0669437 	0
0.0182834 	0 	36.7565 	-0.0620744 	0
0.0188548 	0 	37.3945 	-0.0552809 	0
0.0194261 	0 	38.0388 	-0.0474026 	0
0.0199975 	0 	38.6758 	-0.0393244 	0
0.0205688 	0 	39.1368 	-0.0350744 	0
0.0211402 	0 	39.5686 	-0.0313874 	0
0.0217116 	0 	39.8122 	-0.031333 	0
0.0222829 	0 	40.0558 	-0.0312785 	0
0.0228543 	0 	40.2232 	-0.0318595 	0
0.0234256 	0 	40.3852 	-0.0324846 	0
0.023997 	1.93811e-15 	40.5285 	-0.0330943 	0
0.0285678 	0 	41.0473 	-0.0372466 	0
0.0291392 	0 	41.0568 	-0.037699 	0
0.0297106 	0 	41.0538 	-0.0381415 	0
0.0302819 	0 	41.0326 	-0.0385697 	0
0.0308533 	0 	41.0114 	-0.038998 	0
0.0314246 	0 	40.9902 	-0.0394262 	0
0.031996 	0 	40.9693 	-0.0398536 	0
0.0325673 	0 	40.9535 	-0.0402667 	0
0.0331387 	0 	40.9378 	-0.0406798 	0
0.0337101 	0 	40.922 	-0.041093 	0
0.0342814 	0 	40.9063 	-0.0415061 	0
0.0348528 	-1.67427e-15 	40.8917 	-0.04192 	0
0.0354241 	0 	40.8953 	-0.0423452 	0
0.0359955 	0 	40.8989 	-0.0427705 	0
0.0365668 	0 	40.9026 	-0.0431957 	0
0.0371382 	0 	40.9062 	-0.0436209 	0
0.0377095 	1.61198e-15 	40.9098 	-0.0440462 	0
0.0382809 	1.5238e-15 	40.9131 	-0.0444568 	0
0.0422804 	1.42895e-15 	40.9275 	-0.0471138 	0
0.0428518 	-1.47549e-15 	40.9255 	-0.0474768 	0
0.0434231 	1.42895e-15 	40.9236 	-0.0478398 	0
0.0439945 	0 	40.9217 	-0.0482027 	0
0.0445658 	0 	40.9197 	-0.0485657 	0
0.0451372 	0 	40.9178 	-0.0489287 	0
0.0457085 	1.42895e-15 	40.9158 	-0.0492916 	0
0.0468513 	1.33023e-15 	40.915 	-0.0499842 	0
0.0571357 	0 	40.9222 	-0.0556853 	0
0.057707 	0 	40.9229 	-0.0559615 	0
0.0582784 	0 	40.9235 	-0.0562377 	0
0.0588497 	0 	40.9242 	-0.0565139 	0
0.0594211 	-1.14488e-15 	40.9249 	-0.0567901 	0
0.0599925 	0 	40.9255 	-0.0570663 	0
0.0605638 	0 	40.9262 	-0.0573425 	0
0.0611352 	0 	40.9269 	-0.0576187 	0
0.0617065 	0 	40.9275 	-0.0578949 	0
0.0622779 	1.11853e-15 	40.9282 	-0.0581711 	0
0.0628492 	0 	40.9288 	-0.0584473 	0
0.0634206 	-1.03315e-15 	40.9296 	-0.0587109 	0
0.063992 	0 	40.9306 	-0.0589546 	0
0.0645633 	0 	40.9316 	-0.0591983 	0
0.0651347 	2.02486e-15 	40.9326 	-0.0594419 	0
0.0754191 	8.52466e-16 	40.9549 	-0.0637805 	0
0.0759905 	-8.96412e-16 	40.9568 	-0.0639989 	0
0.0765618 	0 	40.9587 	-0.0642172 	0
0.0771332 	8.52466e-16 	40.9605 	-0.0644356 	0
0.0777045 	0 	40.9624 	-0.064654 	0
0.0782759 	0 	40.9643 	-0.0648723 	0
0.0788472 	0 	40.9662 	-0.0650907 	0
0.0794186 	0 	40.9681 	-0.0653091 	0
0.0799899 	0 	40.97 	-0.0655274 	0
0.0805613 	-8.65092e-16 	40.9721 	-0.0657447 	0
0.0811327 	0 	40.9746 	-0.065961 	0
0.081704 	8.04808e-16 	40.977 	-0.0661774 	0
0.0822754 	0 	40.9795 	-0.0663937 	0
0.0828467 	-8.65092e-16 	40.9819 	-0.06661 	0
0.0834181 	8.04808e-16 	40.9844 	-0.0668264 	0
0.0839894 	0 	40.9868 	-0.0670427 	0
0.0845608 	0 	40.9893 	-0.067259 	0
0.0851322 	0 	40.9924 	-0.067467 	0
0.0857035 	-8.48357e-16 	40.9956 	-0.0676751 	0
0.0862749 	7.76824e-16 	40.9988 	-0.0678831 	0
0.0868462 	-8.48357e-16 	41.0019 	-0.0680912 	0
0.0874176 	1.55365e-15 	41.0051 	-0.0682992 	0
0.0919884 	-8.40951e-16 	41.0371 	-0.0699279 	0
0.0925598 	7.68009e-16 	41.0423 	-0.0701215 	0
0.0931312 	0 	41.0476 	-0.0703151 	0
0.0937025 	0 	41.0528 	-0.0705087 	0
0.0942739 	0 	41.0581 	-0.0707022 	0
0.0948452 	0 	41.0644 	-0.0708774 	0
0.0954166 	0 	41.0711 	-0.0710454 	0
0.0959879 	0 	41.0778 	-0.0712135 	0
0.0965593 	0 	41.0845 	-0.0713815 	0
0.0971307 	0 	41.0919 	-0.0715302 	0
0.097702 	0 	41.1005 	-0.0716452 	0
0.0982734 	0 	41.1091 	-0.0717601 	0
0.0988447 	-7.6984e-16 	41.1176 	-0.0718751 	0
0.0994161 	8.21904e-16 	41.1275 	-0.0719661 	0
0.0999874 	0 	41.1384 	-0.0720386 	0
0.100559 	0 	41.1493 	-0.0721111 	0
0.10113 	8.33862e-16 	41.1607 	-0.0721628 	0
0.102844 	8.3075e-16 	41.186 	-0.0720423 	0
0.104558 	0 	40.9236 	-0.0689521 	0
0.10513 	8.30373e-16 	40.6733 	-0.0659302 	0
0.105701 	0 	40.2097 	-0.0602006 	0
0.106272 	0 	39.6258 	-0.0529446 	0
0.106844 	0 	38.9094 	-0.0452642 	0
0.107415 	0 	38.1384 	-0.037482 	0
0.107986 	0 	37.303 	-0.0309282 	0
0.108558 	0 	36.4483 	-0.0249179 	0
0.109129 	0 	35.5738 	-0.0196266 	0
0.109701 	0 	34.6789 	-0.0152419 	0
0.110272 	9.99294e-16 	33.7463 	-0.0116638 	0
0.110843 	0 	32.7389 	-0.00872259 	0
0.111415 	5.72647e-16 	31.6037 	-0.00626474 	0
0.111986 	1.11302e-15 	30.2079 	-0.00425055 	0
0.112557 	5.44176e-16 	28.2974 	-0.00256899 	0
0.113129 	0 	24.981 	-0.00114101 	0
0.1137 	-0.0379902 	1.39743 	-1.60797e-06 	0
