0 	0.0965692 	0.596224 	-7.82687e-06 	0
0.000571357 	0 	18.5199 	-0.00969717 	0
0.00114271 	-9.11438e-15 	20.6362 	-0.0242038 	0
0.00228543 	0 	21.5847 	-0.0538896 	0
0.00285678 	0 	21.7782 	-0.0663041 	0
0.00342814 	0 	21.9949 	-0.0763541 	0
0.0039995 	0 	22.2695 	-0.0838459 	0
0.00457085 	-7.06095e-15 	22.6055 	-0.0887707 	0
0.00571357 	-1.53882e-14 	23.4184 	-0.0915349 	0
0.00685628 	0 	24.3263 	-0.0865212 	0
0.00742764 	0 	24.7873 	-0.0817496 	0
0.00799899 	-1.77561e-14 	25.2428 	-0.0757761 	0
0.00914171 	0 	26.1208 	-0.0610548 	0
0.00971307 	0 	26.5401 	-0.0527231 	0
0.0102844 	0 	26.9472 	-0.0440687 	0
0.0108558 	0 	27.3452 	-0.0354039 	0
0.0114271 	0 	27.7394 	-0.0271433 	0
0.0119985 	0 	28.1378 	-0.019823 	0
0.0125698 	0 	28.5368 	-0.0143933 	0
0.0131412 	0 	29.113 	-0.0109343 	0
0.0137126 	0 	29.788 	-0.00796248 	0
0.0142839 	0 	30.526 	-0.00225613 	0
0.0148553 	0 	31.2452 	0.00576331 	0
0.0154266 	0 	31.8759 	0.0135341 	0
0.015998 	0 	32.4866 	0.021576 	0
0.0165693 	0 	33.093 	0.0300756 	0
0.0171407 	0 	33.7024 	0.0391741 	0
0.0177121 	0 	34.3244 	0.049155 	0
0.0182834 	0 	34.9656 	0.0600881 	0
0.0188548 	0 	35.6417 	0.0723598 	0
0.0194261 	0 	36.3607 	0.0870003 	0
0.0199975 	0 	37.035 	0.101357 	0
0.0205688 	0 	37.5327 	0.110957 	0
0.0211402 	0 	37.8608 	0.116216 	0
0.0217116 	0 	38.1217 	0.120216 	0
0.0222829 	0 	38.3631 	0.123932 	0
0.0228543 	0 	38.5858 	0.127427 	0
0.0234256 	0 	38.7906 	0.130736 	0
0.023997 	0 	38.9611 	0.133747 	0
0.0245683 	0 	39.1051 	0.136565 	0
0.0251397 	0 	39.2312 	0.139252 	0
0.0257111 	0 	39.3218 	0.141684 	0
0.0262824 	0 	39.4071 	0.144072 	0
0.0268538 	0 	39.4748 	0.146304 	0
0.0274251 	0 	39.5412 	0.148513 	0
0.0279965 	0 	39.6032 	0.150646 	0
0.0285678 	0 	39.6641 	0.152766 	0
0.0291392 	0 	39.719 	0.154813 	0
0.0297106 	0 	39.7739 	0.15686 	0
0.0302819 	0 	39.808 	0.158774 	0
0.0308533 	0 	39.8396 	0.160672 	0
0.0314246 	0 	39.8566 	0.162477 	0
0.031996 	0 	39.8564 	0.164174 	0
0.0325673 	0 	39.8562 	0.165871 	0
0.0331387 	0 	39.8438 	0.167452 	0
0.0337101 	0 	39.8288 	0.16901 	0
0.0342814 	0 	39.8139 	0.170568 	0
0.0348528 	0 	39.8075 	0.172111 	0
0.0354241 	0 	39.8011 	0.173655 	0
0.0359955 	0 	39.7948 	0.175198 	0
0.0365668 	0 	39.7932 	0.176718 	0
0.0371382 	0 	39.7919 	0.178236 	0
0.0377095 	5.73566e-15 	39.7907 	0.179755 	0
0.0382809 	-5.3065e-15 	39.7874 	0.181219 	0
0.0388523 	0 	39.7829 	0.18265 	0
0.0394236 	0 	39.7784 	0.184081 	0
0.039995 	0 	39.7741 	0.18551 	0
0.0405663 	0 	39.775 	0.186895 	0
0.0411377 	0 	39.776 	0.188281 	0
0.041709 	0 	39.777 	0.189666 	0
0.0422804 	0 	39.7795 	0.191049 	0
0.0428518 	0 	39.7897 	0.192424 	0
0.0434231 	0 	39.7999 	0.193798 	0
0.0439945 	0 	39.8101 	0.195172 	0
0.0445658 	0 	39.8204 	0.196547 	0
0.0451372 	0 	39.832 	0.197854 	0
0.0457085 	0 	39.8437 	0.19916 	0
0.0462799 	0 	39.8554 	0.200467 	0
0.0468513 	0 	39.8671 	0.201774 	0
0.0474226 	-4.23608e-15 	39.8765 	0.203034 	0
0.0502794 	-7.86324e-15 	39.91 	0.20902 	0
0.0531362 	0 	39.9351 	0.214547 	0
0.0537075 	0 	39.9411 	0.215594 	0
0.0542789 	0 	39.947 	0.216641 	0
0.0548503 	0 	39.9529 	0.217688 	0
0.0554216 	3.69678e-15 	39.9588 	0.218735 	0
0.055993 	-7.22692e-15 	39.9647 	0.219781 	0
0.057707 	0 	39.9818 	0.222687 	0
0.0582784 	0 	39.9874 	0.223645 	0
0.0588497 	0 	39.9931 	0.224604 	0
0.0594211 	0 	39.9988 	0.225562 	0
0.0599925 	0 	40.0039 	0.226474 	0
0.0605638 	0 	40.0086 	0.227339 	0
0.0611352 	0 	40.0132 	0.228205 	0
0.0617065 	0 	40.0179 	0.229071 	0
0.0622779 	0 	40.0226 	0.229937 	0
0.0628492 	0 	40.0272 	0.230803 	0
0.0634206 	0 	40.0319 	0.231669 	0
0.063992 	0 	40.036 	0.232467 	0
0.0645633 	0 	40.04 	0.233255 	0
0.0651347 	2.61516e-15 	40.0441 	0.234043 	0
0.065706 	-2.57564e-15 	40.0481 	0.234831 	0
0.0662774 	0 	40.0522 	0.235619 	0
0.0668487 	0 	40.0562 	0.236407 	0
0.0674201 	0 	40.0603 	0.237185 	0
0.0679915 	0 	40.0645 	0.23793 	0
0.0685628 	0 	40.0687 	0.238675 	0
0.0691342 	0 	40.0729 	0.23942 	0
0.0697055 	2.28667e-15 	40.0771 	0.240165 	0
0.0702769 	-2.23007e-15 	40.0813 	0.240909 	0
0.0708482 	0 	40.0856 	0.241651 	0
0.0714196 	0 	40.0906 	0.242355 	0
0.071991 	0 	40.0957 	0.24306 	0
0.0725623 	0 	40.1007 	0.243764 	0
0.0731337 	0 	40.1058 	0.244468 	0
0.073705 	0 	40.1108 	0.245172 	0
0.0742764 	0 	40.1165 	0.245868 	0
0.0748477 	0 	40.1231 	0.246551 	0
0.0754191 	0 	40.1297 	0.247234 	0
0.0759905 	1.73608e-15 	40.1363 	0.247917 	0
0.0765618 	-1.62974e-15 	40.1429 	0.2486 	0
0.0771332 	0 	40.1496 	0.249281 	0
0.0777045 	1.50318e-15 	40.1572 	0.249949 	0
0.0782759 	0 	40.1648 	0.250617 	0
0.0788472 	-1.37188e-15 	40.1724 	0.251285 	0
0.0794186 	1.50318e-15 	40.18 	0.251953 	0
0.0799899 	-1.13573e-15 	40.1876 	0.252617 	0
0.0805613 	0 	40.1952 	0.253267 	0
0.0811327 	0 	40.2027 	0.253918 	0
0.081704 	0 	40.2103 	0.254568 	0
0.0822754 	0 	40.2178 	0.255218 	0
0.0828467 	0 	40.2253 	0.255861 	0
0.0834181 	0 	40.2328 	0.256503 	0
0.0839894 	0 	40.2403 	0.257144 	0
0.0845608 	0 	40.2478 	0.257786 	0
0.0851322 	9.05834e-16 	40.2553 	0.25841 	0
0.0857035 	-1.41637e-15 	40.2629 	0.25902 	0
0.0874176 	0 	40.2859 	0.260838 	0
0.0879889 	0 	40.294 	0.261429 	0
0.0885603 	0 	40.302 	0.26202 	0
0.0891317 	0 	40.3101 	0.262605 	0
0.089703 	0 	40.3188 	0.263131 	0
0.0902744 	0 	40.3275 	0.263657 	0
0.0908457 	0 	40.3362 	0.264183 	0
0.0914171 	0 	40.3411 	0.264577 	0
0.0919884 	0 	40.3449 	0.264936 	0
0.0925598 	0 	40.3488 	0.265295 	0
0.0931312 	0 	40.3306 	0.265461 	0
0.0937025 	0 	40.3042 	0.265555 	0
0.0942739 	0 	40.2777 	0.265649 	0
0.0948452 	0 	40.1728 	0.264844 	0
0.0954166 	0 	40.0581 	0.263929 	0
0.0959879 	0 	39.8793 	0.263643 	0
0.0965593 	0 	39.5203 	0.265127 	0
0.0971307 	0 	39.1613 	0.26661 	0
0.097702 	0 	38.5427 	0.271935 	0
0.0982734 	0 	37.871 	0.278043 	0
0.0988447 	0 	37.1324 	0.28351 	0
0.0994161 	0 	36.3451 	0.288509 	0
0.0999874 	0 	35.5616 	0.291951 	0
0.100559 	0 	34.7822 	0.293804 	0
0.10113 	0 	33.9904 	0.294804 	0
0.101702 	0 	33.1893 	0.295148 	0
0.102273 	0 	32.3814 	0.294114 	0
0.102844 	0 	31.5751 	0.292375 	0
0.103416 	0 	30.7929 	0.288464 	0
0.103987 	0 	30.0397 	0.283078 	0
0.104558 	-1.29213e-14 	29.3141 	0.276299 	0
0.10513 	2.66854e-15 	28.6248 	0.267719 	0
0.105701 	0 	27.9617 	0.25745 	0
0.106272 	0 	27.3182 	0.245907 	0
0.106844 	0 	26.695 	0.233123 	0
0.107415 	0 	26.0928 	0.219156 	0
0.107986 	0 	25.511 	0.204085 	0
0.108558 	0 	24.948 	0.188014 	0
0.109129 	4.14081e-15 	24.4015 	0.171024 	0
0.110272 	0 	23.3417 	0.134584 	0
0.110843 	5.32491e-15 	22.8123 	0.115375 	0
0.111415 	-3.11706e-14 	22.2641 	0.0956233 	0
0.111986 	6.26939e-15 	21.6706 	0.0754861 	0
0.112557 	0 	20.9749 	0.0551522 	0
0.113129 	0 	20.0276 	0.0349803 	0
0.1137 	0 	18.2378 	0.0157876 	0
