0 	-0.0699094 	1.32947 	1.2816e-05 	0
0.000571357 	0 	17.4778 	0.0029884 	0
0.00114271 	0 	20.002 	0.0057529 	0
0.00171407 	0 	21.3345 	0.00774343 	0
0.00228543 	0 	22.2235 	0.00903943 	0
0.00285678 	0 	22.8966 	0.0098552 	0
0.00342814 	0 	23.4462 	0.0103913 	0
0.0039995 	0 	23.9246 	0.0108328 	0
0.00457085 	0 	24.3595 	0.0113152 	0
0.00514221 	0 	24.7681 	0.0119454 	0
0.00571357 	0 	25.1615 	0.0127992 	0
0.00628492 	0 	25.5471 	0.0139204 	0
0.00685628 	0 	25.9296 	0.0153229 	0
0.00742764 	0 	26.3121 	0.0169915 	0
0.00799899 	0 	26.6975 	0.0188956 	0
0.00857035 	0 	27.0873 	0.0209376 	0
0.00914171 	0 	27.4847 	0.0230322 	0
0.00971307 	0 	27.8913 	0.0250565 	0
0.0102844 	0 	28.3123 	0.0268482 	0
0.0108558 	0 	28.7522 	0.0282588 	0
0.0114271 	0 	29.2159 	0.0293041 	0
0.0119985 	0 	29.7114 	0.0310071 	0
0.0125698 	0 	30.1494 	0.0310485 	0
0.0131412 	5.75744e-15 	30.8298 	0.0273059 	0
0.0137126 	0 	31.4259 	0.0262228 	0
0.0142839 	0 	32.0161 	0.0261379 	0
0.0148553 	0 	32.5977 	0.0270052 	0
0.0154266 	-2.57074e-15 	33.1709 	0.0287355 	0
0.015998 	0 	33.7361 	0.0313285 	0
0.0165693 	0 	34.2958 	0.0346804 	0
0.0171407 	0 	34.8515 	0.03879 	0
0.0177121 	0 	35.4055 	0.0436218 	0
0.0182834 	0 	35.9599 	0.0490884 	0
0.0188548 	0 	36.5176 	0.0553142 	0
0.0194261 	0 	37.0848 	0.0624272 	0
0.0199975 	0 	37.657 	0.0699821 	0
0.0205688 	0 	38.2524 	0.079454 	0
0.0211402 	0 	38.8353 	0.0887552 	0
0.0217116 	0 	39.3376 	0.096954 	0
0.0222829 	0 	39.8398 	0.105153 	0
0.0228543 	0 	40.1406 	0.109097 	0
0.0234256 	0 	40.4274 	0.112745 	0
0.023997 	7.66903e-17 	40.6523 	0.115349 	0
0.0285678 	0 	41.249 	0.120005 	0
0.0291392 	0 	41.2621 	0.120074 	0
0.0297106 	0 	41.2613 	0.119977 	0
0.0302819 	0 	41.2405 	0.119644 	0
0.0308533 	0 	41.2197 	0.119311 	0
0.0314246 	0 	41.1989 	0.118978 	0
0.031996 	0 	41.1783 	0.118634 	0
0.0325673 	0 	41.1596 	0.118091 	0
0.0331387 	0 	41.1409 	0.117549 	0
0.0337101 	0 	41.1223 	0.117006 	0
0.0342814 	0 	41.1036 	0.116463 	0
0.0348528 	-1.84231e-15 	41.0861 	0.115913 	0
0.0354241 	0 	41.0861 	0.11525 	0
0.0359955 	0 	41.0861 	0.114588 	0
0.0365668 	0 	41.0861 	0.113925 	0
0.0371382 	0 	41.0862 	0.113262 	0
0.0377095 	1.77506e-15 	41.0862 	0.1126 	0
0.0382809 	2.11977e-15 	41.0864 	0.111889 	0
0.0422804 	2.4705e-15 	41.0885 	0.106137 	0
0.0428518 	-2.66671e-15 	41.0852 	0.105175 	0
0.0434231 	2.4705e-15 	41.0819 	0.104212 	0
0.0439945 	0 	41.0787 	0.10325 	0
0.0445658 	0 	41.0754 	0.102287 	0
0.0451372 	0 	41.0722 	0.101325 	0
0.0457085 	2.4705e-15 	41.0689 	0.100363 	0
0.0468513 	2.82252e-15 	41.0652 	0.0983101 	0
0.0571357 	0 	41.0512 	0.07787 	0
0.057707 	0 	41.0512 	0.0766161 	0
0.0582784 	0 	41.0511 	0.0753622 	0
0.0588497 	0 	41.0511 	0.0741083 	0
0.0594211 	-3.84723e-15 	41.051 	0.0728544 	0
0.0599925 	0 	41.0509 	0.0716005 	0
0.0605638 	0 	41.0509 	0.0703466 	0
0.0611352 	0 	41.0508 	0.0690927 	0
0.0617065 	0 	41.0508 	0.0678388 	0
0.0622779 	3.51399e-15 	41.0507 	0.0665849 	0
0.0628492 	0 	41.0507 	0.065331 	0
0.0634206 	-4.18502e-15 	41.0508 	0.0640464 	0
0.063992 	0 	41.0513 	0.0627131 	0
0.0645633 	0 	41.0518 	0.0613798 	0
0.0651347 	7.66678e-15 	41.0523 	0.0600465 	0
0.0754191 	4.31162e-15 	41.0669 	0.0348424 	0
0.0759905 	-4.67351e-15 	41.0685 	0.0333421 	0
0.0765618 	0 	41.0701 	0.0318419 	0
0.0771332 	4.31162e-15 	41.0718 	0.0303417 	0
0.0777045 	0 	41.0734 	0.0288414 	0
0.0782759 	0 	41.075 	0.0273412 	0
0.0788472 	0 	41.0767 	0.0258409 	0
0.0794186 	0 	41.0783 	0.0243407 	0
0.0799899 	0 	41.0799 	0.0228404 	0
0.0805613 	-4.84978e-15 	41.0819 	0.0213105 	0
0.0811327 	0 	41.0841 	0.0197539 	0
0.081704 	4.47404e-15 	41.0864 	0.0181973 	0
0.0822754 	0 	41.0887 	0.0166408 	0
0.0828467 	-4.84978e-15 	41.0909 	0.0150842 	0
0.0834181 	4.47404e-15 	41.0932 	0.0135276 	0
0.0839894 	0 	41.0955 	0.011971 	0
0.0845608 	0 	41.0977 	0.0104144 	0
0.0851322 	0 	41.1008 	0.00882438 	0
0.0857035 	-4.99487e-15 	41.1038 	0.00723436 	0
0.0862749 	4.60869e-15 	41.1068 	0.00564434 	0
0.0868462 	-4.99487e-15 	41.1098 	0.00405433 	0
0.0874176 	9.21738e-15 	41.1128 	0.00246431 	0
0.0919884 	-5.228e-15 	41.1439 	-0.0104891 	0
0.0925598 	4.83007e-15 	41.149 	-0.0121353 	0
0.0931312 	0 	41.1541 	-0.0137815 	0
0.0937025 	0 	41.1592 	-0.0154277 	0
0.0942739 	0 	41.1644 	-0.0170739 	0
0.0948452 	0 	41.1705 	-0.0187239 	0
0.0954166 	0 	41.1771 	-0.0203754 	0
0.0959879 	0 	41.1837 	-0.0220269 	0
0.0965593 	0 	41.1903 	-0.0236784 	0
0.0971307 	0 	41.1976 	-0.0253237 	0
0.097702 	0 	41.206 	-0.0269582 	0
0.0982734 	0 	41.2145 	-0.0285927 	0
0.0988447 	-5.34087e-15 	41.2229 	-0.0302272 	0
0.0994161 	5.09668e-15 	41.2326 	-0.0318562 	0
0.0999874 	0 	41.2432 	-0.0334811 	0
0.100559 	0 	41.2539 	-0.035106 	0
0.10113 	5.16108e-15 	41.2652 	-0.036711 	0
0.102844 	5.20937e-15 	41.2956 	-0.0413349 	0
0.104558 	0 	41.0938 	-0.0440004 	0
0.10513 	5.24395e-15 	40.8824 	-0.0432888 	0
0.105701 	0 	40.457 	-0.0399198 	0
0.106272 	0 	39.911 	-0.0350528 	0
0.106844 	0 	39.221 	-0.0295502 	0
0.107415 	0 	38.4722 	-0.0238615 	0
0.107986 	0 	37.6604 	-0.0193477 	0
0.108558 	0 	36.8302 	-0.0152881 	0
0.109129 	0 	35.9809 	-0.0118252 	0
0.109701 	0 	35.1113 	-0.0090972 	0
0.110272 	-4.17596e-15 	34.2019 	-0.00697241 	0
0.110843 	0 	33.2134 	-0.00528569 	0
0.111415 	5.15627e-15 	32.0916 	-0.00390327 	0
0.111986 	-4.10116e-15 	30.6997 	-0.00276144 	0
0.112557 	5.13856e-15 	28.7781 	-0.00174734 	0
0.113129 	0 	25.4217 	-0.000792831 	0
0.1137 	0.129746 	1.43641 	-6.05432e-08 	0
