0 	-52.3648 	0 	0 	0
0.000571357 	-52.7457 	-1.84779 	-0.113122 	0
0.00114271 	-53.3891 	-0.967278 	-0.253477 	0
0.00171407 	-54.0105 	-0.0470566 	-0.396705 	0
0.00228543 	-54.5851 	0.910706 	-0.541365 	0
0.00285678 	-55.1067 	1.90384 	-0.685209 	0
0.00342814 	-55.5836 	2.93426 	-0.829166 	0
0.0039995 	-56.0132 	4.00723 	-0.972233 	0
0.00457085 	-56.3972 	5.1298 	-1.1145 	0
0.00514221 	-56.7432 	6.30906 	-1.25661 	0
0.00571357 	-57.0511 	7.5541 	-1.39805 	0
0.00628492 	-57.3271 	8.87205 	-1.53912 	0
0.00685628 	-57.4936 	10.2808 	-1.67919 	0
0.00742764 	-57.542 	11.8369 	-1.81888 	0
0.00799899 	-57.6181 	13.5766 	-1.95805 	0
0.00857035 	-57.7186 	15.4583 	-2.09689 	0
0.00914171 	-57.8451 	17.4773 	-2.2348 	0
0.00971307 	-57.9709 	19.5863 	-2.3716 	0
0.0102844 	-58.1271 	21.7212 	-2.50312 	0
0.0108558 	-58.2836 	23.8294 	-2.62725 	0
0.0114271 	-58.3951 	25.9485 	-2.74464 	0
0.0119985 	-58.4385 	28.2187 	-2.85627 	0
0.0125698 	-58.4843 	30.3501 	-2.95051 	0
0.0131412 	-59.0813 	33.2575 	-3.08358 	0
0.0137126 	-59.3683 	34.8 	-3.15685 	0
0.0142839 	-59.6644 	35.507 	-3.17041 	0
0.0148553 	-59.9325 	36.0057 	-3.17233 	0
0.0154266 	-60.1797 	36.4628 	-3.16992 	0
0.015998 	-60.417 	36.8468 	-3.1616 	0
0.0165693 	-60.6288 	37.2354 	-3.15413 	0
0.0171407 	-60.8359 	37.6096 	-3.14547 	0
0.0177121 	-61.0416 	37.9588 	-3.13497 	0
0.0182834 	-61.2046 	38.2918 	-3.12308 	0
0.0188548 	-61.3712 	38.6092 	-3.11038 	0
0.0194261 	-61.5716 	38.9089 	-3.09708 	0
0.0199975 	-61.6905 	39.2053 	-3.08277 	0
0.0205688 	-61.8796 	39.4793 	-3.06817 	0
0.0211402 	-61.9992 	39.753 	-3.0529 	0
0.0217116 	-62.1767 	40.0068 	-3.0374 	0
0.0222829 	-62.2634 	40.263 	-3.02115 	0
0.0228543 	-62.4675 	40.4972 	-3.00525 	0
0.0234256 	-62.5418 	40.733 	-2.98824 	0
0.023997 	-62.6791 	40.957 	-2.97142 	0
0.0245683 	-62.8188 	41.1668 	-2.95424 	0
0.0251397 	-62.8808 	41.3791 	-2.93653 	0
0.0257111 	-63.0206 	41.5687 	-2.91844 	0
0.0262824 	-63.1493 	41.7422 	-2.89961 	0
0.0268538 	-63.1988 	41.9199 	-2.88039 	0
0.0274251 	-63.2783 	42.0832 	-2.86067 	0
0.0279965 	-63.4642 	42.1926 	-2.83905 	0
0.0285678 	-63.5017 	42.3131 	-2.81702 	0
0.0291392 	-63.5393 	42.4337 	-2.79499 	0
0.0297106 	-63.6323 	42.5187 	-2.77136 	0
0.0302819 	-63.7938 	42.5533 	-2.74538 	0
0.0308533 	-63.8186 	42.5964 	-2.71893 	0
0.0314246 	-63.8433 	42.6394 	-2.69247 	0
0.031996 	-63.8749 	42.6793 	-2.66594 	0
0.0325673 	-64.0261 	42.6645 	-2.63817 	0
0.0331387 	-64.1046 	42.6499 	-2.60988 	0
0.0337101 	-64.1172 	42.6356 	-2.58111 	0
0.0342814 	-64.1299 	42.6212 	-2.55235 	0
0.0348528 	-64.1497 	42.6074 	-2.52376 	0
0.0354241 	-64.2796 	42.6006 	-2.49799 	0
0.0359955 	-64.3703 	42.5925 	-2.47188 	0
0.0365668 	-64.3725 	42.5814 	-2.44501 	0
0.0371382 	-64.3746 	42.5704 	-2.41813 	0
0.0377095 	-64.3768 	42.5593 	-2.39126 	0
0.0382809 	-64.415 	42.5534 	-2.36539 	0
0.0388523 	-64.5248 	42.5577 	-2.34151 	0
0.0394236 	-64.5968 	42.5609 	-2.31735 	0
0.039995 	-64.5901 	42.562 	-2.29263 	0
0.0405663 	-64.5834 	42.5632 	-2.2679 	0
0.0411377 	-64.5767 	42.5643 	-2.24317 	0
0.041709 	-64.5699 	42.5655 	-2.21845 	0
0.0422804 	-64.6387 	42.5657 	-2.19527 	0
0.0428518 	-64.7299 	42.5657 	-2.17255 	0
0.0434231 	-64.7725 	42.5647 	-2.14952 	0
0.0439945 	-64.7595 	42.5624 	-2.12616 	0
0.0445658 	-64.7466 	42.5601 	-2.10279 	0
0.0451372 	-64.7336 	42.5578 	-2.07942 	0
0.0457085 	-64.7206 	42.5555 	-2.05605 	0
0.0462799 	-64.729 	42.5539 	-2.03321 	0
0.0468513 	-64.8027 	42.5546 	-2.01196 	0
0.0474226 	-64.8764 	42.5554 	-1.99072 	0
0.047994 	-64.8949 	42.5548 	-1.96916 	0
0.0485653 	-64.8772 	42.5533 	-1.94741 	0
0.0491367 	-64.8594 	42.5519 	-1.92565 	0
0.049708 	-64.8417 	42.5504 	-1.9039 	0
0.0502794 	-64.8239 	42.549 	-1.88214 	0
0.0508508 	-64.8062 	42.5475 	-1.86038 	0
0.0514221 	-64.8354 	42.5475 	-1.83983 	0
0.0519935 	-64.8937 	42.5482 	-1.82002 	0
0.0525648 	-64.952 	42.549 	-1.80022 	0
0.0531362 	-64.9641 	42.5486 	-1.78019 	0
0.0537075 	-64.9438 	42.5475 	-1.76 	0
0.0542789 	-64.9235 	42.5465 	-1.73982 	0
0.0548503 	-64.9032 	42.5454 	-1.71964 	0
0.0554216 	-64.8829 	42.5443 	-1.69945 	0
0.055993 	-64.8626 	42.5432 	-1.67927 	0
0.0565643 	-64.8423 	42.5421 	-1.65908 	0
0.0571357 	-64.8685 	42.5424 	-1.64056 	0
0.057707 	-64.9123 	42.5433 	-1.62267 	0
0.0582784 	-64.956 	42.5442 	-1.60478 	0
0.0588497 	-64.9838 	42.5447 	-1.58681 	0
0.0594211 	-64.9642 	42.5441 	-1.56861 	0
0.0599925 	-64.9446 	42.5435 	-1.55042 	0
0.0605638 	-64.925 	42.5429 	-1.53223 	0
0.0611352 	-64.9054 	42.5423 	-1.51403 	0
0.0617065 	-64.8858 	42.5417 	-1.49584 	0
0.0622779 	-64.8662 	42.5411 	-1.47765 	0
0.0628492 	-64.8466 	42.5405 	-1.45945 	0
0.0634206 	-64.8475 	42.5405 	-1.44184 	0
0.063992 	-64.881 	42.5416 	-1.42514 	0
0.0645633 	-64.9145 	42.5427 	-1.40845 	0
0.0651347 	-64.9481 	42.5438 	-1.39175 	0
0.065706 	-64.9351 	42.5439 	-1.37485 	0
0.0662774 	-64.9175 	42.5438 	-1.35793 	0
0.0668487 	-64.9 	42.5436 	-1.34101 	0
0.0674201 	-64.8825 	42.5435 	-1.32409 	0
0.0679915 	-64.865 	42.5434 	-1.30717 	0
0.0685628 	-64.8474 	42.5433 	-1.29025 	0
0.0691342 	-64.8299 	42.5432 	-1.27333 	0
0.0697055 	-64.8145 	42.5432 	-1.25644 	0
0.0702769 	-64.8413 	42.5447 	-1.24021 	0
0.0708482 	-64.8681 	42.5461 	-1.22397 	0
0.0714196 	-64.8943 	42.5475 	-1.20773 	0
0.071991 	-64.8784 	42.548 	-1.19135 	0
0.0725623 	-64.8624 	42.5484 	-1.17497 	0
0.0731337 	-64.8465 	42.5488 	-1.15859 	0
0.073705 	-64.8305 	42.5492 	-1.14221 	0
0.0742764 	-64.8146 	42.5497 	-1.12583 	0
0.0748477 	-64.7987 	42.5501 	-1.10945 	0
0.0754191 	-64.7885 	42.5507 	-1.0932 	0
0.0759905 	-64.8099 	42.5526 	-1.07769 	0
0.0765618 	-64.8313 	42.5544 	-1.06218 	0
0.0771332 	-64.8343 	42.5558 	-1.04661 	0
0.0777045 	-64.8197 	42.5567 	-1.03098 	0
0.0782759 	-64.8052 	42.5577 	-1.01536 	0
0.0788472 	-64.7906 	42.5587 	-0.999735 	0
0.0794186 	-64.7761 	42.5596 	-0.984111 	0
0.0799899 	-64.7616 	42.5606 	-0.968486 	0
0.0805613 	-64.7639 	42.5623 	-0.953199 	0
0.0811327 	-64.7813 	42.5646 	-0.938213 	0
0.081704 	-64.792 	42.5668 	-0.923206 	0
0.0822754 	-64.7789 	42.5683 	-0.908129 	0
0.0828467 	-64.7658 	42.5699 	-0.893051 	0
0.0834181 	-64.7528 	42.5715 	-0.877974 	0
0.0839894 	-64.7397 	42.5731 	-0.862896 	0
0.0845608 	-64.7267 	42.5746 	-0.84782 	0
0.0851322 	-64.7411 	42.5776 	-0.833243 	0
0.0857035 	-64.7555 	42.5805 	-0.818666 	0
0.0862749 	-64.744 	42.5828 	-0.804012 	0
0.0868462 	-64.7323 	42.5851 	-0.789357 	0
0.0874176 	-64.7206 	42.5874 	-0.774702 	0
0.0879889 	-64.7089 	42.5897 	-0.760046 	0
0.0885603 	-64.7076 	42.5926 	-0.745558 	0
0.0891317 	-64.7196 	42.5963 	-0.731284 	0
0.089703 	-64.7163 	42.5996 	-0.716963 	0
0.0902744 	-64.7058 	42.6027 	-0.702621 	0
0.0908457 	-64.6953 	42.6059 	-0.688278 	0
0.0914171 	-64.6849 	42.609 	-0.673935 	0
0.0919884 	-64.6891 	42.6133 	-0.659814 	0
0.0925598 	-64.6957 	42.6179 	-0.64577 	0
0.0931312 	-64.6863 	42.6221 	-0.631676 	0
0.0937025 	-64.6769 	42.6263 	-0.617581 	0
0.0942739 	-64.6676 	42.6305 	-0.603486 	0
0.0948452 	-64.6712 	42.636 	-0.589569 	0
0.0954166 	-64.6732 	42.6418 	-0.575699 	0
0.0959879 	-64.6648 	42.6473 	-0.561793 	0
0.0965593 	-64.6564 	42.6528 	-0.547887 	0
0.0971307 	-64.6537 	42.6591 	-0.534058 	0
0.097702 	-64.6581 	42.6665 	-0.520351 	0
0.0982734 	-64.6506 	42.6737 	-0.506599 	0
0.0988447 	-64.643 	42.6808 	-0.492848 	0
0.0994161 	-64.6433 	42.6892 	-0.479195 	0
0.0999874 	-64.6423 	42.6985 	-0.465589 	0
0.100559 	-64.6355 	42.7075 	-0.451958 	0
0.10113 	-64.6317 	42.7172 	-0.438366 	0
0.101702 	-64.6329 	42.7288 	-0.424872 	0
0.102273 	-64.6267 	42.7402 	-0.411343 	0
0.102844 	-64.6244 	42.7526 	-0.397865 	0
0.103416 	-64.623 	42.7667 	-0.384444 	0
0.103987 	-64.6174 	42.7806 	-0.371 	0
0.104558 	-64.6182 	42.7972 	-0.357645 	0
0.10513 	-64.6131 	42.8141 	-0.344262 	0
0.105701 	-64.6128 	42.8331 	-0.330962 	0
0.106272 	-64.6082 	42.8531 	-0.317658 	0
0.106844 	-64.6074 	42.8758 	-0.304416 	0
0.107415 	-64.6035 	42.8993 	-0.291155 	0
0.107986 	-64.6019 	42.9266 	-0.278011 	0
0.108558 	-64.5995 	42.9346 	-0.264869 	0
0.109129 	-64.5953 	42.8289 	-0.249907 	0
0.109701 	-64.5881 	42.4063 	-0.22953 	0
0.110272 	-64.583 	41.2398 	-0.196589 	0
0.110843 	-64.5847 	39.3811 	-0.155614 	0
0.111415 	-64.5885 	37.1812 	-0.115689 	0
0.111986 	-64.5989 	34.7622 	-0.0798756 	0
0.112557 	-64.6186 	31.9578 	-0.0484081 	0
0.113129 	-64.6472 	27.7937 	-0.0207032 	0
0.1137 	-64.6714 	1.16794e-10 	-5.10053e-15 	0
