0 	-3.0248 	0 	0 	0
0.000571357 	-3.41107 	5.20349 	-0.37135 	0
0.00114271 	-3.42966 	5.26404 	-0.850538 	0
0.00171407 	-3.38535 	6.6813 	-1.22369 	0
0.00228543 	-3.68671 	8.90407 	-1.5124 	0
0.00285678 	-4.00042 	11.0501 	-1.78952 	0
0.00342814 	-4.33521 	12.7592 	-2.07056 	0
0.0039995 	-4.77108 	14.2781 	-2.35586 	0
0.00457085 	-5.34687 	15.7057 	-2.63725 	0
0.00514221 	-6.07348 	17.065 	-2.90669 	0
0.00571357 	-6.96859 	18.3801 	-3.16627 	0
0.00628492 	-8.04725 	19.6573 	-3.41693 	0
0.00685628 	-9.3179 	20.8972 	-3.65781 	0
0.00742764 	-10.7777 	22.0981 	-3.88715 	0
0.00799899 	-12.3964 	23.2447 	-4.09877 	0
0.00857035 	-14.2177 	24.3569 	-4.30143 	0
0.00914171 	-16.1841 	25.4102 	-4.48461 	0
0.00971307 	-18.3411 	26.4349 	-4.65623 	0
0.0102844 	-20.6087 	27.4108 	-4.80934 	0
0.0108558 	-22.9524 	28.3436 	-4.93852 	0
0.0114271 	-25.4687 	29.2392 	-5.04653 	0
0.0119985 	-28.7435 	30.0792 	-5.22999 	0
0.0125698 	-31.1007 	30.7474 	-5.34186 	0
0.0131412 	-28.8293 	31.4123 	-5.28125 	0
0.0137126 	-28.8792 	31.9513 	-5.34124 	0
0.0142839 	-30.1746 	32.5111 	-5.38962 	0
0.0148553 	-32.0229 	33.0624 	-5.42705 	0
0.0154266 	-34.1779 	33.5963 	-5.45453 	0
0.015998 	-36.5068 	34.1036 	-5.4732 	0
0.0165693 	-38.9608 	34.5926 	-5.48321 	0
0.0171407 	-41.4706 	35.0586 	-5.48629 	0
0.0177121 	-44.0065 	35.5035 	-5.48335 	0
0.0182834 	-46.5904 	35.9363 	-5.47232 	0
0.0188548 	-49.139 	36.3448 	-5.45678 	0
0.0194261 	-51.6292 	36.7299 	-5.43909 	0
0.0199975 	-54.1641 	37.115 	-5.41236 	0
0.0205688 	-56.5657 	37.4637 	-5.38617 	0
0.0211402 	-58.9963 	37.8153 	-5.35276 	0
0.0217116 	-61.2919 	38.1321 	-5.32011 	0
0.0222829 	-63.6173 	38.4569 	-5.27926 	0
0.0228543 	-65.7819 	38.7363 	-5.24315 	0
0.0234256 	-67.941 	39.023 	-5.19579 	0
0.023997 	-70.0294 	39.2859 	-5.15014 	0
0.0245683 	-72.0071 	39.5186 	-5.1033 	0
0.0251397 	-73.9637 	39.7576 	-5.04913 	0
0.0257111 	-75.8307 	39.9605 	-4.99648 	0
0.0262824 	-77.5971 	40.1329 	-4.94226 	0
0.0268538 	-79.3164 	40.3115 	-4.8807 	0
0.0274251 	-81 	40.4741 	-4.81969 	0
0.0279965 	-82.5483 	40.5765 	-4.76069 	0
0.0285678 	-84.0227 	40.6836 	-4.6941 	0
0.0291392 	-85.4776 	40.7919 	-4.62553 	0
0.0297106 	-86.8623 	40.8744 	-4.55887 	0
0.0302819 	-88.1459 	40.9195 	-4.49495 	0
0.0308533 	-89.3416 	40.9656 	-4.42405 	0
0.0314246 	-90.5134 	41.012 	-4.35125 	0
0.031996 	-91.6767 	41.0571 	-4.27904 	0
0.0325673 	-92.6939 	41.0808 	-4.2171 	0
0.0331387 	-93.6879 	41.1038 	-4.15366 	0
0.0337101 	-94.585 	41.1241 	-4.08395 	0
0.0342814 	-95.4821 	41.1444 	-4.01424 	0
0.0348528 	-96.3718 	41.1654 	-3.9454 	0
0.0354241 	-97.1476 	41.1991 	-3.8901 	0
0.0359955 	-97.9235 	41.2328 	-3.8348 	0
0.0365668 	-98.5886 	41.2626 	-3.77387 	0
0.0371382 	-99.2448 	41.292 	-3.71249 	0
0.0377095 	-99.901 	41.3214 	-3.6511 	0
0.0382809 	-100.528 	41.3509 	-3.59351 	0
0.0388523 	-101.097 	41.3807 	-3.54343 	0
0.0394236 	-101.665 	41.4105 	-3.49335 	0
0.039995 	-102.135 	41.4375 	-3.43935 	0
0.0405663 	-102.592 	41.464 	-3.38485 	0
0.0411377 	-103.049 	41.4906 	-3.33035 	0
0.041709 	-103.506 	41.5172 	-3.27585 	0
0.0422804 	-103.915 	41.5368 	-3.22855 	0
0.0428518 	-104.31 	41.5543 	-3.18337 	0
0.0434231 	-104.705 	41.5718 	-3.1382 	0
0.0439945 	-105.006 	41.5866 	-3.09 	0
0.0445658 	-105.304 	41.6013 	-3.04168 	0
0.0451372 	-105.601 	41.616 	-2.99336 	0
0.0457085 	-105.899 	41.6307 	-2.94505 	0
0.0462799 	-106.187 	41.6452 	-2.89891 	0
0.0468513 	-106.445 	41.6592 	-2.85946 	0
0.0474226 	-106.703 	41.6731 	-2.82 	0
0.047994 	-106.959 	41.687 	-2.78049 	0
0.0485653 	-107.137 	41.6985 	-2.73889 	0
0.0491367 	-107.315 	41.7099 	-2.6973 	0
0.049708 	-107.492 	41.7214 	-2.6557 	0
0.0502794 	-107.67 	41.7328 	-2.61411 	0
0.0508508 	-107.847 	41.7443 	-2.57251 	0
0.0514221 	-108.014 	41.7549 	-2.5355 	0
0.0519935 	-108.173 	41.765 	-2.50132 	0
0.0525648 	-108.332 	41.7751 	-2.46714 	0
0.0531362 	-108.491 	41.7852 	-2.43295 	0
0.0537075 	-108.591 	41.7934 	-2.39749 	0
0.0542789 	-108.686 	41.8015 	-2.36193 	0
0.0548503 	-108.782 	41.8096 	-2.32637 	0
0.0554216 	-108.877 	41.8177 	-2.29082 	0
0.055993 	-108.972 	41.8258 	-2.25526 	0
0.0565643 	-109.068 	41.8339 	-2.2197 	0
0.0571357 	-109.158 	41.8415 	-2.18911 	0
0.057707 	-109.247 	41.8489 	-2.1604 	0
0.0582784 	-109.336 	41.8563 	-2.13168 	0
0.0588497 	-109.424 	41.8637 	-2.10297 	0
0.0594211 	-109.49 	41.8703 	-2.07383 	0
0.0599925 	-109.531 	41.8762 	-2.04427 	0
0.0605638 	-109.573 	41.8821 	-2.0147 	0
0.0611352 	-109.615 	41.8881 	-1.98514 	0
0.0617065 	-109.657 	41.894 	-1.95557 	0
0.0622779 	-109.699 	41.8999 	-1.92601 	0
0.0628492 	-109.74 	41.9058 	-1.89644 	0
0.0634206 	-109.785 	41.9117 	-1.86863 	0
0.063992 	-109.833 	41.9175 	-1.8436 	0
0.0645633 	-109.882 	41.9234 	-1.81858 	0
0.0651347 	-109.93 	41.9292 	-1.79355 	0
0.065706 	-109.973 	41.9349 	-1.76844 	0
0.0662774 	-109.986 	41.9396 	-1.74286 	0
0.0668487 	-110 	41.9444 	-1.71729 	0
0.0674201 	-110.013 	41.9491 	-1.69172 	0
0.0679915 	-110.026 	41.9538 	-1.66614 	0
0.0685628 	-110.04 	41.9585 	-1.64057 	0
0.0691342 	-110.053 	41.9633 	-1.61499 	0
0.0697055 	-110.067 	41.968 	-1.58954 	0
0.0702769 	-110.094 	41.9732 	-1.56656 	0
0.0708482 	-110.121 	41.9783 	-1.54358 	0
0.0714196 	-110.148 	41.9834 	-1.5206 	0
0.071991 	-110.165 	41.9883 	-1.49748 	0
0.0725623 	-110.165 	41.9925 	-1.47412 	0
0.0731337 	-110.165 	41.9968 	-1.45075 	0
0.073705 	-110.164 	42.001 	-1.42739 	0
0.0742764 	-110.164 	42.0053 	-1.40402 	0
0.0748477 	-110.163 	42.0096 	-1.38066 	0
0.0754191 	-110.166 	42.0139 	-1.35764 	0
0.0759905 	-110.181 	42.0187 	-1.33656 	0
0.0765618 	-110.196 	42.0234 	-1.31548 	0
0.0771332 	-110.211 	42.0282 	-1.2944 	0
0.0777045 	-110.206 	42.0323 	-1.27305 	0
0.0782759 	-110.199 	42.0364 	-1.25168 	0
0.0788472 	-110.193 	42.0404 	-1.23031 	0
0.0794186 	-110.187 	42.0445 	-1.20895 	0
0.0799899 	-110.18 	42.0486 	-1.18758 	0
0.0805613 	-110.182 	42.053 	-1.16705 	0
0.0811327 	-110.191 	42.0577 	-1.14728 	0
0.081704 	-110.201 	42.0624 	-1.12751 	0
0.0822754 	-110.197 	42.0667 	-1.10758 	0
0.0828467 	-110.189 	42.0708 	-1.08758 	0
0.0834181 	-110.181 	42.0749 	-1.06758 	0
0.0839894 	-110.173 	42.0791 	-1.04758 	0
0.0845608 	-110.165 	42.0832 	-1.02758 	0
0.0851322 	-110.172 	42.0881 	-1.00877 	0
0.0857035 	-110.178 	42.093 	-0.989961 	0
0.0862749 	-110.176 	42.0977 	-0.971044 	0
0.0868462 	-110.169 	42.1021 	-0.952042 	0
0.0874176 	-110.161 	42.1065 	-0.93304 	0
0.0879889 	-110.153 	42.111 	-0.914038 	0
0.0885603 	-110.151 	42.1158 	-0.895418 	0
0.0891317 	-110.156 	42.1211 	-0.877289 	0
0.089703 	-110.157 	42.1264 	-0.85911 	0
0.0902744 	-110.151 	42.1313 	-0.840814 	0
0.0908457 	-110.144 	42.1363 	-0.822518 	0
0.0914171 	-110.137 	42.1412 	-0.804222 	0
0.0919884 	-110.139 	42.147 	-0.78641 	0
0.0925598 	-110.143 	42.153 	-0.768793 	0
0.0931312 	-110.139 	42.1588 	-0.751047 	0
0.0937025 	-110.134 	42.1645 	-0.733278 	0
0.0942739 	-110.128 	42.1703 	-0.715509 	0
0.0948452 	-110.13 	42.177 	-0.69812 	0
0.0954166 	-110.133 	42.184 	-0.680866 	0
0.0959879 	-110.129 	42.1908 	-0.663483 	0
0.0965593 	-110.124 	42.1976 	-0.646101 	0
0.0971307 	-110.123 	42.205 	-0.628876 	0
0.097702 	-110.127 	42.2135 	-0.611928 	0
0.0982734 	-110.124 	42.2217 	-0.594852 	0
0.0988447 	-110.121 	42.2299 	-0.577768 	0
0.0994161 	-110.122 	42.2392 	-0.560895 	0
0.0999874 	-110.123 	42.2493 	-0.544142 	0
0.100559 	-110.121 	42.2592 	-0.527298 	0
0.10113 	-110.12 	42.2698 	-0.510539 	0
0.101702 	-110.122 	42.282 	-0.494012 	0
0.102273 	-110.12 	42.2941 	-0.477373 	0
0.102844 	-110.12 	42.3071 	-0.46085 	0
0.103416 	-110.122 	42.3217 	-0.444477 	0
0.103987 	-110.12 	42.3362 	-0.428023 	0
0.104558 	-110.123 	42.3532 	-0.411816 	0
0.10513 	-110.122 	42.3705 	-0.395517 	0
0.105701 	-110.124 	42.3897 	-0.379427 	0
0.106272 	-110.124 	42.41 	-0.363317 	0
0.106844 	-110.126 	42.4328 	-0.347378 	0
0.107415 	-110.126 	42.4565 	-0.331382 	0
0.107986 	-110.128 	42.484 	-0.31563 	0
0.108558 	-110.13 	42.5013 	-0.300063 	0
0.109129 	-110.129 	42.4399 	-0.283219 	0
0.109701 	-110.125 	42.0945 	-0.260848 	0
0.110272 	-110.124 	41.0235 	-0.223814 	0
0.110843 	-110.133 	39.1908 	-0.176022 	0
0.111415 	-110.145 	36.954 	-0.129484 	0
0.111986 	-110.165 	34.4561 	-0.0880875 	0
0.112557 	-110.192 	31.5836 	-0.0523795 	0
0.113129 	-110.228 	27.3998 	-0.0216275 	0
0.1137 	-110.255 	1.14003e-10 	-4.88811e-15 	0
