0 	0.0189309 	0.129168 	-9.04564e-06 	0
0.000571357 	0 	7.53464 	-0.0307457 	0
0.00114271 	-2.00721e-14 	9.26738 	-0.0673391 	0
0.00228543 	0 	11.1437 	-0.117776 	0
0.00285678 	0 	12.104 	-0.129715 	0
0.00342814 	0 	13.1066 	-0.131772 	0
0.0039995 	0 	14.005 	-0.130138 	0
0.00457085 	-1.21477e-14 	14.8079 	-0.126498 	0
0.00571357 	-2.47841e-14 	16.3673 	-0.117056 	0
0.00685628 	0 	17.978 	-0.102572 	0
0.00742764 	0 	18.715 	-0.0932198 	0
0.00799899 	-2.34478e-14 	19.3771 	-0.08246 	0
0.00914171 	0 	20.5013 	-0.0557094 	0
0.00971307 	0 	20.9126 	-0.0390954 	0
0.0102844 	0 	21.086 	-0.0200354 	0
0.0108558 	0 	20.9284 	0.000875269 	0
0.0114271 	0 	20.4604 	0.0217787 	0
0.0119985 	0 	19.7427 	0.0401817 	0
0.0125698 	0 	18.8251 	0.0576207 	0
0.0131412 	0 	19.2336 	0.0471806 	0
0.0137126 	0 	20.5885 	0.0379486 	0
0.0142839 	0 	21.7417 	0.0320624 	0
0.0148553 	0 	22.77 	0.0296089 	0
0.0154266 	0 	23.7243 	0.0299399 	0
0.015998 	0 	24.6313 	0.0325108 	0
0.0165693 	0 	25.51 	0.0368192 	0
0.0171407 	0 	26.372 	0.0425945 	0
0.0177121 	0 	27.2252 	0.049877 	0
0.0182834 	0 	28.0773 	0.0584002 	0
0.0188548 	0 	28.9359 	0.0683125 	0
0.0194261 	0 	29.8125 	0.0796461 	0
0.0199975 	0 	30.7218 	0.0924387 	0
0.0205688 	0 	31.6881 	0.106901 	0
0.0211402 	0 	32.7453 	0.123968 	0
0.0217116 	0 	33.912 	0.144169 	0
0.0222829 	0 	34.9287 	0.162089 	0
0.0228543 	0 	35.7231 	0.176201 	0
0.0234256 	0 	36.3289 	0.18705 	0
0.023997 	0 	36.7763 	0.195273 	0
0.0245683 	0 	37.1953 	0.203412 	0
0.0251397 	0 	37.595 	0.211495 	0
0.0257111 	0 	37.971 	0.22002 	0
0.0262824 	0 	38.3418 	0.228653 	0
0.0268538 	0 	38.6919 	0.237727 	0
0.0274251 	0 	39.0362 	0.246945 	0
0.0279965 	0 	39.3606 	0.256651 	0
0.0285678 	0 	39.6811 	0.266454 	0
0.0291392 	0 	39.9788 	0.276828 	0
0.0297106 	0 	40.2765 	0.287202 	0
0.0302819 	0 	40.5495 	0.298157 	0
0.0308533 	0 	40.8196 	0.309182 	0
0.0314246 	0 	41.0765 	0.320469 	0
0.031996 	0 	41.3182 	0.332062 	0
0.0325673 	0 	41.5599 	0.343655 	0
0.0331387 	0 	41.7773 	0.355589 	0
0.0337101 	0 	41.9899 	0.367591 	0
0.0342814 	0 	42.2025 	0.379593 	0
0.0348528 	0 	42.3857 	0.39175 	0
0.0354241 	0 	42.5687 	0.403907 	0
0.0359955 	0 	42.7517 	0.416065 	0
0.0365668 	0 	42.907 	0.428028 	0
0.0371382 	0 	43.0602 	0.439976 	0
0.0377095 	1.13688e-14 	43.2133 	0.451924 	0
0.0382809 	-4.58808e-15 	43.3482 	0.463439 	0
0.0388523 	0 	43.4716 	0.474684 	0
0.0394236 	0 	43.5951 	0.48593 	0
0.039995 	0 	43.7174 	0.497127 	0
0.0405663 	0 	43.8115 	0.507073 	0
0.0411377 	0 	43.9056 	0.517019 	0
0.041709 	0 	43.9997 	0.526964 	0
0.0422804 	0 	44.0889 	0.53657 	0
0.0428518 	0 	44.1539 	0.544516 	0
0.0434231 	0 	44.2188 	0.552463 	0
0.0439945 	0 	44.2838 	0.560409 	0
0.0445658 	0 	44.3487 	0.568355 	0
0.0451372 	0 	44.3853 	0.573488 	0
0.0457085 	0 	44.4217 	0.578601 	0
0.0462799 	0 	44.4581 	0.583714 	0
0.0468513 	0 	44.4945 	0.588827 	0
0.0474226 	3.49658e-15 	44.5184 	0.592127 	0
0.0502794 	1.44279e-14 	44.5582 	0.59601 	0
0.0531362 	0 	44.505 	0.577801 	0
0.0537075 	0 	44.4842 	0.56934 	0
0.0542789 	0 	44.4633 	0.560879 	0
0.0548503 	0 	44.4425 	0.552418 	0
0.0554216 	-1.83234e-14 	44.4216 	0.543957 	0
0.055993 	2.30388e-14 	44.4008 	0.535496 	0
0.057707 	0 	44.3381 	0.496473 	0
0.0582784 	0 	44.3172 	0.482862 	0
0.0588497 	0 	44.2964 	0.469251 	0
0.0594211 	0 	44.2755 	0.45564 	0
0.0599925 	0 	44.2529 	0.440138 	0
0.0605638 	0 	44.2286 	0.422757 	0
0.0611352 	0 	44.2043 	0.405376 	0
0.0617065 	0 	44.1801 	0.387995 	0
0.0622779 	0 	44.1558 	0.370614 	0
0.0628492 	0 	44.1315 	0.353233 	0
0.0634206 	0 	44.1073 	0.335852 	0
0.063992 	0 	44.07 	0.316599 	0
0.0645633 	0 	44.0307 	0.297044 	0
0.0651347 	-3.44942e-14 	43.9913 	0.277489 	0
0.065706 	2.28925e-14 	43.952 	0.257935 	0
0.0662774 	0 	43.9126 	0.23838 	0
0.0668487 	0 	43.8733 	0.218825 	0
0.0674201 	0 	43.8327 	0.199168 	0
0.0679915 	0 	43.7875 	0.179148 	0
0.0685628 	0 	43.7424 	0.159128 	0
0.0691342 	0 	43.6973 	0.139108 	0
0.0697055 	-3.50324e-14 	43.6522 	0.119088 	0
0.0702769 	2.42627e-14 	43.6071 	0.0990683 	0
0.0708482 	0 	43.5628 	0.0791769 	0
0.0714196 	0 	43.5287 	0.060888 	0
0.071991 	0 	43.4947 	0.0425991 	0
0.0725623 	0 	43.4606 	0.0243102 	0
0.0731337 	0 	43.4266 	0.00602135 	0
0.073705 	0 	43.3925 	-0.0122675 	0
0.0742764 	0 	43.3611 	-0.0294535 	0
0.0748477 	0 	43.3339 	-0.0448752 	0
0.0754191 	0 	43.3067 	-0.0602969 	0
0.0759905 	-2.99658e-14 	43.2795 	-0.0757186 	0
0.0765618 	2.31114e-14 	43.2524 	-0.0911403 	0
0.0771332 	0 	43.2246 	-0.106163 	0
0.0777045 	-2.57531e-14 	43.1925 	-0.118202 	0
0.0782759 	0 	43.1605 	-0.130242 	0
0.0788472 	2.12957e-14 	43.1284 	-0.142282 	0
0.0794186 	-2.57531e-14 	43.0964 	-0.154322 	0
0.0799899 	1.9217e-14 	43.0607 	-0.165536 	0
0.0805613 	0 	43.0137 	-0.174182 	0
0.0811327 	0 	42.9666 	-0.182829 	0
0.081704 	0 	42.9196 	-0.191475 	0
0.0822754 	0 	42.8726 	-0.200121 	0
0.0828467 	0 	42.8084 	-0.206532 	0
0.0834181 	0 	42.738 	-0.212118 	0
0.0839894 	0 	42.6676 	-0.217705 	0
0.0845608 	0 	42.5972 	-0.223292 	0
0.0851322 	-1.43086e-14 	42.5102 	-0.227461 	0
0.0857035 	3.11035e-14 	42.4099 	-0.230487 	0
0.0874176 	0 	42.0848 	-0.238202 	0
0.0879889 	0 	41.9496 	-0.239244 	0
0.0885603 	0 	41.8145 	-0.240286 	0
0.0891317 	0 	41.6751 	-0.241174 	0
0.089703 	0 	41.5019 	-0.240796 	0
0.0902744 	0 	41.3287 	-0.240417 	0
0.0908457 	0 	41.1555 	-0.240038 	0
0.0914171 	0 	40.9505 	-0.238931 	0
0.0919884 	0 	40.7374 	-0.237636 	0
0.0925598 	0 	40.5243 	-0.236341 	0
0.0931312 	0 	40.2811 	-0.234692 	0
0.0937025 	0 	40.0268 	-0.232912 	0
0.0942739 	0 	39.7725 	-0.231131 	0
0.0948452 	0 	39.4804 	-0.229217 	0
0.0954166 	0 	39.1837 	-0.227287 	0
0.0959879 	0 	38.8753 	-0.225383 	0
0.0965593 	0 	38.5342 	-0.223556 	0
0.0971307 	0 	38.1931 	-0.221729 	0
0.097702 	0 	37.8134 	-0.220141 	0
0.0982734 	0 	37.4258 	-0.218601 	0
0.0988447 	0 	37.0103 	-0.217268 	0
0.0994161 	0 	36.5744 	-0.216086 	0
0.0999874 	0 	36.1133 	-0.215071 	0
0.100559 	0 	35.6265 	-0.214225 	0
0.10113 	0 	35.1088 	-0.213514 	0
0.101702 	0 	34.5675 	-0.212905 	0
0.102273 	0 	33.9783 	-0.212357 	0
0.102844 	0 	33.3626 	-0.21175 	0
0.103416 	0 	32.6582 	-0.210615 	0
0.103987 	0 	31.8036 	-0.206028 	0
0.104558 	-1.52433e-14 	30.7934 	-0.19756 	0
0.10513 	1.95331e-14 	29.5382 	-0.182061 	0
0.105701 	0 	28.2708 	-0.167982 	0
0.106272 	0 	27.0981 	-0.158838 	0
0.106844 	0 	25.9895 	-0.153286 	0
0.107415 	0 	24.8759 	-0.148666 	0
0.107986 	0 	23.7324 	-0.143939 	0
0.108558 	0 	22.5774 	-0.139266 	0
0.109129 	1.85773e-14 	21.4269 	-0.134474 	0
0.110272 	0 	19.0714 	-0.120405 	0
0.110843 	1.76533e-14 	17.7935 	-0.109254 	0
0.111415 	-4.14871e-15 	16.3942 	-0.0948683 	0
0.111986 	1.70684e-14 	14.8511 	-0.0780048 	0
0.112557 	0 	13.1327 	-0.0595755 	0
0.113129 	0 	11.1883 	-0.0402757 	0
0.1137 	0 	9.03741 	-0.0194248 	0
