0 	-3.37496 	11.8305 	0.00170097 	0
0.000571357 	0 	65.2559 	-0.0543727 	0
0.00114271 	0 	73.2823 	-0.171923 	0
0.00171407 	0 	73.72 	-0.304635 	0
0.00228543 	0 	71.4361 	-0.421236 	0
0.00285678 	0 	68.2494 	-0.507776 	0
0.00342814 	0 	64.9342 	-0.561061 	0
0.0039995 	0 	61.7718 	-0.588311 	0
0.00457085 	0 	58.762 	-0.602303 	0
0.00514221 	0 	55.7812 	-0.619924 	0
0.00571357 	0 	52.6751 	-0.660373 	0
0.00628492 	0 	49.3063 	-0.740515 	0
0.00685628 	0 	45.5764 	-0.868359 	0
0.00742764 	0 	41.5594 	-1.04041 	0
0.00799899 	0 	37.3751 	-1.24711 	0
0.00857035 	0 	33.2112 	-1.47104 	0
0.00914171 	0 	29.2634 	-1.70368 	0
0.00971307 	0 	25.5449 	-1.93874 	0
0.0102844 	0 	22.0279 	-2.17333 	0
0.0108558 	0 	18.8561 	-2.39435 	0
0.0114271 	0 	16.2711 	-2.62436 	0
0.0119985 	0 	14.5676 	-2.97134 	0
0.0125698 	0 	14.0804 	-3.11318 	0
0.0131412 	-4.12285e-14 	11.311 	-3.0511 	0
0.0137126 	0 	10.6859 	-3.20441 	0
0.0142839 	0 	12.1643 	-3.31534 	0
0.0148553 	0 	13.8667 	-3.40863 	0
0.0154266 	-6.52846e-14 	15.434 	-3.48721 	0
0.015998 	0 	16.908 	-3.55782 	0
0.0165693 	0 	18.3584 	-3.62477 	0
0.0171407 	0 	19.7148 	-3.68354 	0
0.0177121 	0 	20.9738 	-3.73409 	0
0.0182834 	0 	22.1591 	-3.77702 	0
0.0188548 	0 	23.2665 	-3.80954 	0
0.0194261 	0 	24.2846 	-3.83095 	0
0.0199975 	0 	25.2615 	-3.84729 	0
0.0205688 	0 	26.1035 	-3.84798 	0
0.0211402 	0 	26.9266 	-3.84625 	0
0.0217116 	0 	27.6283 	-3.82892 	0
0.0222829 	0 	28.33 	-3.81159 	0
0.0228543 	0 	28.9198 	-3.78259 	0
0.0234256 	0 	29.5019 	-3.75277 	0
0.023997 	-6.39758e-14 	30.0387 	-3.72008 	0
0.0285678 	0 	33.0094 	-3.35144 	0
0.0291392 	0 	33.2794 	-3.29637 	0
0.0297106 	0 	33.5192 	-3.2405 	0
0.0302819 	0 	33.7156 	-3.18345 	0
0.0308533 	0 	33.9119 	-3.1264 	0
0.0314246 	0 	34.1083 	-3.06936 	0
0.031996 	0 	34.3016 	-3.01218 	0
0.0325673 	0 	34.4414 	-2.95281 	0
0.0331387 	0 	34.5813 	-2.89345 	0
0.0337101 	0 	34.7211 	-2.83408 	0
0.0342814 	0 	34.861 	-2.77471 	0
0.0348528 	1.1155e-13 	34.999 	-2.71521 	0
0.0354241 	0 	35.1076 	-2.65373 	0
0.0359955 	0 	35.2163 	-2.59225 	0
0.0365668 	0 	35.325 	-2.53077 	0
0.0371382 	0 	35.4337 	-2.46929 	0
0.0377095 	-6.82425e-14 	35.5423 	-2.40781 	0
0.0382809 	-4.89715e-14 	35.6409 	-2.34649 	0
0.0422804 	-1.70816e-14 	36.1581 	-1.91713 	0
0.0428518 	5.36914e-15 	36.1946 	-1.85324 	0
0.0434231 	-1.70816e-14 	36.2312 	-1.78935 	0
0.0439945 	0 	36.2677 	-1.72546 	0
0.0445658 	0 	36.3042 	-1.66157 	0
0.0451372 	0 	36.3407 	-1.59767 	0
0.0457085 	-1.70816e-14 	36.3772 	-1.53378 	0
0.0468513 	2.73703e-14 	36.4341 	-1.39557 	0
0.0571357 	0 	37.1369 	-0.0941878 	0
0.057707 	0 	37.2001 	-0.0338884 	0
0.0582784 	0 	37.2632 	0.0264109 	0
0.0588497 	0 	37.3263 	0.0867103 	0
0.0594211 	-2.32266e-13 	37.3895 	0.14701 	0
0.0599925 	0 	37.4526 	0.207309 	0
0.0605638 	0 	37.5158 	0.267608 	0
0.0611352 	0 	37.5789 	0.327908 	0
0.0617065 	0 	37.642 	0.388207 	0
0.0622779 	1.13538e-13 	37.7052 	0.448507 	0
0.0628492 	0 	37.7683 	0.508806 	0
0.0634206 	-2.37271e-13 	37.831 	0.563455 	0
0.063992 	0 	37.8929 	0.60912 	0
0.0645633 	0 	37.9549 	0.654784 	0
0.0651347 	2.5535e-13 	38.0168 	0.700449 	0
0.0754191 	1.10458e-13 	39.1779 	1.40452 	0
0.0759905 	-1.79431e-13 	39.2504 	1.42758 	0
0.0765618 	0 	39.3229 	1.45065 	0
0.0771332 	1.10458e-13 	39.3954 	1.47371 	0
0.0777045 	0 	39.4679 	1.49677 	0
0.0782759 	0 	39.5405 	1.51983 	0
0.0788472 	0 	39.613 	1.54289 	0
0.0794186 	0 	39.6855 	1.56596 	0
0.0799899 	0 	39.758 	1.58902 	0
0.0805613 	-1.35229e-13 	39.8322 	1.60634 	0
0.0811327 	0 	39.9079 	1.61854 	0
0.081704 	9.17071e-14 	39.9835 	1.63073 	0
0.0822754 	0 	40.0592 	1.64292 	0
0.0828467 	-1.35229e-13 	40.1348 	1.65511 	0
0.0834181 	9.17071e-14 	40.2105 	1.66731 	0
0.0839894 	0 	40.2862 	1.6795 	0
0.0845608 	0 	40.3618 	1.69167 	0
0.0851322 	0 	40.4348 	1.69441 	0
0.0857035 	-9.33376e-14 	40.5078 	1.69716 	0
0.0862749 	7.23504e-14 	40.5808 	1.6999 	0
0.0868462 	-9.33376e-14 	40.6537 	1.70265 	0
0.0874176 	1.44701e-13 	40.7267 	1.7054 	0
0.0919884 	-3.85197e-14 	41.2128 	1.64515 	0
0.0925598 	4.46024e-14 	41.2587 	1.62702 	0
0.0931312 	0 	41.3046 	1.60889 	0
0.0937025 	0 	41.3505 	1.59077 	0
0.0942739 	0 	41.3964 	1.57264 	0
0.0948452 	0 	41.4409 	1.55271 	0
0.0954166 	0 	41.4848 	1.53207 	0
0.0959879 	0 	41.5288 	1.51144 	0
0.0965593 	0 	41.5727 	1.4908 	0
0.0971307 	0 	41.6157 	1.46831 	0
0.097702 	0 	41.6573 	1.44257 	0
0.0982734 	0 	41.6988 	1.41684 	0
0.0988447 	-9.68275e-15 	41.7404 	1.3911 	0
0.0994161 	2.6147e-14 	41.7804 	1.36276 	0
0.0999874 	0 	41.8193 	1.33239 	0
0.100559 	0 	41.8583 	1.30203 	0
0.10113 	2.1606e-14 	41.8973 	1.2709 	0
0.102844 	2.00117e-14 	42.0168 	1.16878 	0
0.104558 	0 	42.1664 	1.05024 	0
0.10513 	2.40259e-14 	42.2327 	1.00813 	0
0.105701 	0 	42.3521 	0.965694 	0
0.106272 	0 	42.5013 	0.923072 	0
0.106844 	0 	42.8046 	0.881079 	0
0.107415 	0 	43.1863 	0.839463 	0
0.107986 	0 	43.9421 	0.800467 	0
0.108558 	0 	45.0234 	0.762748 	0
0.109129 	0 	46.5355 	0.724963 	0
0.109701 	0 	48.6267 	0.683575 	0
0.110272 	-1.65232e-13 	51.4285 	0.633384 	0
0.110843 	0 	55.1594 	0.566452 	0
0.111415 	1.07075e-13 	60.1708 	0.472488 	0
0.111986 	-2.05113e-13 	67.2845 	0.34111 	0
0.112557 	1.20677e-13 	76.6153 	0.184982 	0
0.113129 	0 	83.3848 	0.0521335 	0
0.1137 	7.69018 	8.23025 	-2.14119e-05 	0
