0 	0.859987 	1.52662 	-0.000107438 	0
0.000571357 	0 	18.9129 	-0.0133827 	0
0.00114271 	0 	21.5474 	-0.026934 	0
0.00171407 	0 	22.7111 	-0.0420648 	0
0.00228543 	0 	23.2703 	-0.0592757 	0
0.00285678 	0 	23.5538 	-0.0782606 	0
0.00342814 	0 	23.72 	-0.098538 	0
0.0039995 	0 	23.8542 	-0.119597 	0
0.00457085 	0 	23.9981 	-0.141073 	0
0.00514221 	0 	24.1739 	-0.162708 	0
0.00571357 	0 	24.3926 	-0.184332 	0
0.00628492 	0 	24.6598 	-0.205841 	0
0.00685628 	0 	24.979 	-0.227173 	0
0.00742764 	0 	25.3522 	-0.248297 	0
0.00799899 	0 	25.786 	-0.269174 	0
0.00857035 	0 	26.2742 	-0.28981 	0
0.00914171 	0 	26.8274 	-0.310131 	0
0.00971307 	0 	27.4374 	-0.330098 	0
0.0102844 	0 	28.1208 	-0.349306 	0
0.0108558 	0 	28.8931 	-0.367112 	0
0.0114271 	0 	29.7455 	-0.382436 	0
0.0119985 	0 	30.6599 	-0.390754 	0
0.0125698 	0 	31.4617 	-0.396851 	0
0.0131412 	-7.90348e-15 	32.4384 	-0.407298 	0
0.0137126 	0 	32.9601 	-0.410513 	0
0.0142839 	0 	33.4184 	-0.41449 	0
0.0148553 	0 	33.8487 	-0.418769 	0
0.0154266 	-1.14075e-14 	34.2661 	-0.423043 	0
0.015998 	0 	34.6813 	-0.427113 	0
0.0165693 	0 	35.1023 	-0.430871 	0
0.0171407 	0 	35.5338 	-0.434228 	0
0.0177121 	0 	35.9785 	-0.437131 	0
0.0182834 	0 	36.4366 	-0.439585 	0
0.0188548 	0 	36.913 	-0.441436 	0
0.0194261 	0 	37.4121 	-0.442688 	0
0.0199975 	0 	37.9213 	-0.44365 	0
0.0205688 	0 	38.457 	-0.443474 	0
0.0211402 	0 	38.981 	-0.443165 	0
0.0217116 	0 	39.4301 	-0.441996 	0
0.0222829 	0 	39.8791 	-0.440827 	0
0.0228543 	0 	40.1483 	-0.439486 	0
0.0234256 	0 	40.4049 	-0.438133 	0
0.023997 	-1.20974e-14 	40.6092 	-0.436669 	0
0.0285678 	0 	41.1951 	-0.41751 	0
0.0291392 	0 	41.2086 	-0.414236 	0
0.0297106 	0 	41.2074 	-0.410769 	0
0.0302819 	0 	41.1853 	-0.407022 	0
0.0308533 	0 	41.1631 	-0.403275 	0
0.0314246 	0 	41.1409 	-0.399528 	0
0.031996 	0 	41.1189 	-0.395789 	0
0.0325673 	0 	41.0991 	-0.39218 	0
0.0331387 	0 	41.0793 	-0.388571 	0
0.0337101 	0 	41.0595 	-0.384961 	0
0.0342814 	0 	41.0396 	-0.381352 	0
0.0348528 	1.15688e-14 	41.021 	-0.377763 	0
0.0354241 	0 	41.0212 	-0.374481 	0
0.0359955 	0 	41.0213 	-0.3712 	0
0.0365668 	0 	41.0215 	-0.367918 	0
0.0371382 	0 	41.0216 	-0.364636 	0
0.0377095 	-1.0466e-14 	41.0217 	-0.361355 	0
0.0382809 	-9.93156e-15 	41.022 	-0.358129 	0
0.0422804 	-9.36786e-15 	41.0226 	-0.336462 	0
0.0428518 	1.04202e-14 	41.019 	-0.333529 	0
0.0434231 	-9.36786e-15 	41.0154 	-0.330597 	0
0.0439945 	0 	41.0117 	-0.327664 	0
0.0445658 	0 	41.0081 	-0.324732 	0
0.0451372 	0 	41.0045 	-0.321799 	0
0.0457085 	-9.36786e-15 	41.0009 	-0.318867 	0
0.0468513 	-8.78701e-15 	40.9969 	-0.313302 	0
0.0571357 	0 	40.9825 	-0.267572 	0
0.057707 	0 	40.9824 	-0.2654 	0
0.0582784 	0 	40.9823 	-0.263229 	0
0.0588497 	0 	40.9822 	-0.261057 	0
0.0594211 	8.40382e-15 	40.9822 	-0.258885 	0
0.0599925 	0 	40.9821 	-0.256713 	0
0.0605638 	0 	40.982 	-0.254541 	0
0.0611352 	0 	40.9819 	-0.25237 	0
0.0617065 	0 	40.9819 	-0.250198 	0
0.0622779 	-7.58718e-15 	40.9818 	-0.248026 	0
0.0628492 	0 	40.9817 	-0.245854 	0
0.0634206 	7.77746e-15 	40.9819 	-0.243759 	0
0.063992 	0 	40.9823 	-0.241784 	0
0.0645633 	0 	40.9828 	-0.239809 	0
0.0651347 	-1.40064e-14 	40.9833 	-0.237835 	0
0.0754191 	-6.10068e-15 	40.9979 	-0.203551 	0
0.0759905 	6.87842e-15 	40.9995 	-0.201822 	0
0.0765618 	0 	41.0011 	-0.200093 	0
0.0771332 	-6.10068e-15 	41.0028 	-0.198365 	0
0.0777045 	0 	41.0044 	-0.196636 	0
0.0782759 	0 	41.006 	-0.194907 	0
0.0788472 	0 	41.0076 	-0.193178 	0
0.0794186 	0 	41.0093 	-0.191449 	0
0.0799899 	0 	41.0109 	-0.189721 	0
0.0805613 	6.56707e-15 	41.0129 	-0.188049 	0
0.0811327 	0 	41.0151 	-0.186429 	0
0.081704 	-5.79303e-15 	41.0174 	-0.184809 	0
0.0822754 	0 	41.0197 	-0.183189 	0
0.0828467 	6.56707e-15 	41.022 	-0.181568 	0
0.0834181 	-5.79303e-15 	41.0242 	-0.179948 	0
0.0839894 	0 	41.0265 	-0.178328 	0
0.0845608 	0 	41.0288 	-0.176708 	0
0.0851322 	0 	41.0318 	-0.175163 	0
0.0857035 	6.32148e-15 	41.0349 	-0.173618 	0
0.0862749 	-5.54649e-15 	41.0379 	-0.172073 	0
0.0868462 	6.32148e-15 	41.0409 	-0.170528 	0
0.0874176 	-1.1093e-14 	41.044 	-0.168983 	0
0.0919884 	5.99027e-15 	41.0752 	-0.157034 	0
0.0925598 	-5.17147e-15 	41.0804 	-0.155581 	0
0.0931312 	0 	41.0856 	-0.154128 	0
0.0937025 	0 	41.0908 	-0.152675 	0
0.0942739 	0 	41.0959 	-0.151222 	0
0.0948452 	0 	41.1022 	-0.149765 	0
0.0954166 	0 	41.1088 	-0.148306 	0
0.0959879 	0 	41.1155 	-0.146847 	0
0.0965593 	0 	41.1222 	-0.145388 	0
0.0971307 	0 	41.1295 	-0.143911 	0
0.097702 	0 	41.138 	-0.142403 	0
0.0982734 	0 	41.1465 	-0.140894 	0
0.0988447 	5.94622e-15 	41.1551 	-0.139385 	0
0.0994161 	-4.80686e-15 	41.1649 	-0.137834 	0
0.0999874 	0 	41.1757 	-0.136249 	0
0.100559 	0 	41.1866 	-0.134664 	0
0.10113 	-4.7455e-15 	41.198 	-0.133045 	0
0.102844 	-4.73474e-15 	41.2265 	-0.127811 	0
0.104558 	0 	41.005 	-0.119692 	0
0.10513 	-4.72074e-15 	40.7839 	-0.114975 	0
0.105701 	0 	40.3477 	-0.107198 	0
0.106272 	0 	39.7904 	-0.0976972 	0
0.106844 	0 	39.0839 	-0.0873647 	0
0.107415 	0 	38.3162 	-0.0767649 	0
0.107986 	0 	37.4775 	-0.0672286 	0
0.108558 	0 	36.6151 	-0.0581185 	0
0.109129 	0 	35.7274 	-0.04959 	0
0.109701 	0 	34.8118 	-0.041808 	0
0.110272 	9.41962e-15 	33.8497 	-0.0346403 	0
0.110843 	0 	32.8068 	-0.0279385 	0
0.111415 	-5.17627e-15 	31.6327 	-0.0215837 	0
0.111986 	9.8282e-15 	30.1883 	-0.0155514 	0
0.112557 	-5.2738e-15 	28.22 	-0.00981858 	0
0.113129 	0 	24.8505 	-0.00443562 	0
0.1137 	-0.325717 	1.3808 	-3.80386e-06 	0
