0 	0.825962 	0.231026 	-0.000102424 	0
0.000571357 	0 	13.7736 	-0.0782642 	0
0.00114271 	-2.87214e-13 	19.1946 	-0.153108 	0
0.00228543 	0 	21.1995 	-0.32414 	0
0.00285678 	0 	19.6587 	-0.428954 	0
0.00342814 	0 	18.4925 	-0.529185 	0
0.0039995 	0 	17.6917 	-0.624621 	0
0.00457085 	-1.52161e-13 	17.1426 	-0.714667 	0
0.00571357 	-3.15528e-13 	17.1475 	-0.875721 	0
0.00685628 	0 	18.5588 	-1.01624 	0
0.00742764 	0 	19.5764 	-1.08422 	0
0.00799899 	-3.3887e-13 	20.6845 	-1.15403 	0
0.00914171 	0 	22.9665 	-1.29825 	0
0.00971307 	0 	24.2191 	-1.37103 	0
0.0102844 	0 	25.5831 	-1.445 	0
0.0108558 	0 	27.0757 	-1.52119 	0
0.0114271 	0 	28.7197 	-1.60049 	0
0.0119985 	0 	30.5425 	-1.68223 	0
0.0125698 	0 	32.4591 	-1.72446 	0
0.0131412 	0 	29.5547 	-1.83423 	0
0.0137126 	0 	24.8325 	-1.87528 	0
0.0142839 	0 	23.2733 	-1.87014 	0
0.0148553 	0 	23.8051 	-1.84436 	0
0.0154266 	0 	24.8247 	-1.80913 	0
0.015998 	0 	25.9988 	-1.76592 	0
0.0165693 	0 	27.2335 	-1.71621 	0
0.0171407 	0 	28.4912 	-1.66122 	0
0.0177121 	0 	29.7484 	-1.60134 	0
0.0182834 	0 	30.9917 	-1.5379 	0
0.0188548 	0 	32.2046 	-1.47092 	0
0.0194261 	0 	33.3709 	-1.40085 	0
0.0199975 	0 	34.4806 	-1.32824 	0
0.0205688 	0 	35.524 	-1.25353 	0
0.0211402 	0 	36.4963 	-1.17726 	0
0.0217116 	0 	37.3833 	-1.10002 	0
0.0222829 	0 	38.1874 	-1.02279 	0
0.0228543 	0 	38.9245 	-0.946317 	0
0.0234256 	0 	39.6052 	-0.870839 	0
0.023997 	0 	40.204 	-0.797883 	0
0.0245683 	0 	40.7483 	-0.727529 	0
0.0251397 	0 	41.2557 	-0.658936 	0
0.0257111 	0 	41.672 	-0.595715 	0
0.0262824 	0 	42.0651 	-0.533867 	0
0.0268538 	0 	42.363 	-0.47762 	0
0.0274251 	0 	42.6286 	-0.423025 	0
0.0279965 	0 	42.7853 	-0.373996 	0
0.0285678 	0 	42.9169 	-0.325998 	0
0.0291392 	0 	42.9009 	-0.284091 	0
0.0297106 	0 	42.8849 	-0.242184 	0
0.0302819 	0 	42.7152 	-0.206024 	0
0.0308533 	0 	42.5272 	-0.170549 	0
0.0314246 	0 	42.294 	-0.137502 	0
0.031996 	0 	42.0082 	-0.107289 	0
0.0325673 	0 	41.7224 	-0.0770764 	0
0.0331387 	0 	41.4514 	-0.0500419 	0
0.0337101 	0 	41.1834 	-0.0236406 	0
0.0342814 	0 	40.9154 	0.00276072 	0
0.0348528 	0 	40.7371 	0.0264135 	0
0.0354241 	0 	40.5593 	0.0500533 	0
0.0359955 	0 	40.3815 	0.0736931 	0
0.0365668 	0 	40.282 	0.0950878 	0
0.0371382 	0 	40.1885 	0.11631 	0
0.0377095 	1.18974e-13 	40.095 	0.137532 	0
0.0382809 	-9.85137e-14 	40.0254 	0.157065 	0
0.0388523 	0 	39.9707 	0.175543 	0
0.0394236 	0 	39.916 	0.194022 	0
0.039995 	0 	39.8617 	0.212399 	0
0.0405663 	0 	39.8182 	0.228132 	0
0.0411377 	0 	39.7746 	0.243865 	0
0.041709 	0 	39.7311 	0.259597 	0
0.0422804 	0 	39.6895 	0.274939 	0
0.0428518 	0 	39.6576 	0.288374 	0
0.0434231 	0 	39.6256 	0.301809 	0
0.0439945 	0 	39.5937 	0.315244 	0
0.0445658 	0 	39.5617 	0.328679 	0
0.0451372 	0 	39.5422 	0.339983 	0
0.0457085 	0 	39.5228 	0.351272 	0
0.0462799 	0 	39.5033 	0.362561 	0
0.0468513 	0 	39.4839 	0.37385 	0
0.0474226 	-5.8314e-14 	39.4663 	0.384079 	0
0.0502794 	-9.96942e-14 	39.3883 	0.4282 	0
0.0531362 	0 	39.3087 	0.462392 	0
0.0537075 	0 	39.2943 	0.467552 	0
0.0542789 	0 	39.28 	0.472713 	0
0.0548503 	0 	39.2656 	0.477873 	0
0.0554216 	4.73055e-14 	39.2513 	0.483034 	0
0.055993 	-8.41243e-14 	39.2369 	0.488194 	0
0.057707 	0 	39.1996 	0.49947 	0
0.0582784 	0 	39.1874 	0.503042 	0
0.0588497 	0 	39.1752 	0.506615 	0
0.0594211 	0 	39.163 	0.510187 	0
0.0599925 	0 	39.1514 	0.513063 	0
0.0605638 	0 	39.1404 	0.515247 	0
0.0611352 	0 	39.1295 	0.517432 	0
0.0617065 	0 	39.1185 	0.519616 	0
0.0622779 	0 	39.1076 	0.5218 	0
0.0628492 	0 	39.0966 	0.523985 	0
0.0634206 	0 	39.0856 	0.526169 	0
0.063992 	0 	39.0751 	0.527442 	0
0.0645633 	0 	39.0646 	0.528569 	0
0.0651347 	2.75207e-14 	39.0541 	0.529696 	0
0.065706 	-2.30949e-14 	39.0436 	0.530822 	0
0.0662774 	0 	39.0331 	0.531949 	0
0.0668487 	0 	39.0227 	0.533075 	0
0.0674201 	0 	39.0123 	0.534025 	0
0.0679915 	0 	39.0022 	0.534349 	0
0.0685628 	0 	38.9921 	0.534672 	0
0.0691342 	0 	38.982 	0.534996 	0
0.0697055 	2.28618e-14 	38.9719 	0.53532 	0
0.0702769 	-1.84395e-14 	38.9619 	0.535644 	0
0.0708482 	0 	38.9519 	0.535922 	0
0.0714196 	0 	38.9427 	0.535626 	0
0.071991 	0 	38.9335 	0.535331 	0
0.0725623 	0 	38.9243 	0.535035 	0
0.0731337 	0 	38.9151 	0.534739 	0
0.073705 	0 	38.9059 	0.534444 	0
0.0742764 	0 	38.8974 	0.533964 	0
0.0748477 	0 	38.8898 	0.533188 	0
0.0754191 	0 	38.8823 	0.532412 	0
0.0759905 	1.61804e-14 	38.8748 	0.531636 	0
0.0765618 	-1.17722e-14 	38.8672 	0.530861 	0
0.0771332 	0 	38.8599 	0.53004 	0
0.0777045 	1.36965e-14 	38.8541 	0.528885 	0
0.0782759 	0 	38.8482 	0.52773 	0
0.0788472 	-9.35332e-15 	38.8424 	0.526575 	0
0.0794186 	1.36965e-14 	38.8366 	0.52542 	0
0.0799899 	-7.328e-15 	38.8309 	0.524184 	0
0.0805613 	0 	38.8256 	0.522697 	0
0.0811327 	0 	38.8204 	0.521209 	0
0.081704 	0 	38.8151 	0.519721 	0
0.0822754 	0 	38.8098 	0.518234 	0
0.0828467 	0 	38.8045 	0.516542 	0
0.0834181 	0 	38.799 	0.514775 	0
0.0839894 	0 	38.7936 	0.513008 	0
0.0845608 	0 	38.7882 	0.511241 	0
0.0851322 	8.24183e-15 	38.7823 	0.509345 	0
0.0857035 	-8.25861e-15 	38.776 	0.507345 	0
0.0874176 	0 	38.7561 	0.501241 	0
0.0879889 	0 	38.7482 	0.499092 	0
0.0885603 	0 	38.7402 	0.496944 	0
0.0891317 	0 	38.7321 	0.494784 	0
0.089703 	0 	38.7226 	0.492539 	0
0.0902744 	0 	38.7131 	0.490294 	0
0.0908457 	0 	38.7035 	0.48805 	0
0.0914171 	0 	38.6927 	0.485664 	0
0.0919884 	0 	38.6815 	0.483242 	0
0.0925598 	0 	38.6703 	0.48082 	0
0.0931312 	0 	38.6512 	0.478252 	0
0.0937025 	0 	38.6291 	0.475628 	0
0.0942739 	0 	38.6071 	0.473005 	0
0.0948452 	0 	38.5579 	0.470629 	0
0.0954166 	0 	38.5053 	0.468284 	0
0.0959879 	0 	38.4417 	0.466031 	0
0.0965593 	0 	38.347 	0.464038 	0
0.0971307 	0 	38.2524 	0.462046 	0
0.097702 	0 	38.1263 	0.460028 	0
0.0982734 	0 	37.9938 	0.458005 	0
0.0988447 	0 	37.8438 	0.455936 	0
0.0994161 	0 	37.6809 	0.453833 	0
0.0999874 	0 	37.503 	0.451661 	0
0.100559 	0 	37.3095 	0.449419 	0
0.10113 	0 	37.0965 	0.446925 	0
0.101702 	0 	36.8684 	0.44424 	0
0.102273 	0 	36.6083 	0.440855 	0
0.102844 	0 	36.3322 	0.437109 	0
0.103416 	0 	36.0083 	0.43223 	0
0.103987 	0 	35.643 	0.426365 	0
0.104558 	-1.59227e-14 	35.2364 	0.419465 	0
0.10513 	1.09544e-14 	34.7696 	0.410893 	0
0.105701 	0 	34.2453 	0.400317 	0
0.106272 	0 	33.6781 	0.387959 	0
0.106844 	0 	33.0724 	0.373807 	0
0.107415 	0 	32.4405 	0.357988 	0
0.107986 	0 	31.8181 	0.340808 	0
0.108558 	0 	31.262 	0.322323 	0
0.109129 	2.48591e-14 	30.821 	0.301031 	0
0.110272 	0 	30.5535 	0.243791 	0
0.110843 	3.08336e-14 	30.8348 	0.207527 	0
0.111415 	-7.01109e-14 	31.4229 	0.167631 	0
0.111986 	3.47172e-14 	32.2699 	0.12617 	0
0.112557 	0 	33.2621 	0.0856824 	0
0.113129 	0 	34.0824 	0.0492937 	0
0.1137 	0 	33.5223 	0.0196419 	0
