0 	0.242741 	1.62249 	-8.5964e-06 	0
0.000571357 	0 	19.6363 	0.000360511 	0
0.00114271 	0 	22.2864 	0.000534322 	0
0.00171407 	0 	23.6807 	3.7478e-05 	0
0.00228543 	0 	24.6219 	-0.00127453 	0
0.00285678 	0 	25.3411 	-0.00335861 	0
0.00342814 	0 	25.9277 	-0.00613605 	0
0.0039995 	0 	26.4321 	-0.00946966 	0
0.00457085 	0 	26.8814 	-0.0132248 	0
0.00514221 	0 	27.2933 	-0.0172566 	0
0.00571357 	0 	27.6803 	-0.0214115 	0
0.00628492 	0 	28.0511 	-0.0255417 	0
0.00685628 	0 	28.4116 	-0.0295094 	0
0.00742764 	0 	28.7657 	-0.0331881 	0
0.00799899 	0 	29.1157 	-0.0364214 	0
0.00857035 	0 	29.4634 	-0.0391692 	0
0.00914171 	0 	29.8085 	-0.0412602 	0
0.00971307 	0 	30.1509 	-0.0427301 	0
0.0102844 	0 	30.4889 	-0.0434368 	0
0.0108558 	0 	30.8203 	-0.0433265 	0
0.0114271 	0 	31.1428 	-0.0424982 	0
0.0119985 	0 	31.4526 	-0.0415721 	0
0.0125698 	0 	31.6965 	-0.0398184 	0
0.0131412 	-7.71121e-15 	32.2354 	-0.0350711 	0
0.0137126 	0 	33.2787 	-0.0306104 	0
0.0142839 	0 	34.0928 	-0.0264508 	0
0.0148553 	0 	34.7189 	-0.0229684 	0
0.0154266 	6.92183e-15 	35.306 	-0.0193879 	0
0.015998 	0 	35.8937 	-0.0153314 	0
0.0165693 	0 	36.4914 	-0.0107501 	0
0.0171407 	0 	37.1116 	-0.00492241 	0
0.0177121 	0 	37.7375 	0.00186553 	0
0.0182834 	0 	38.3226 	0.00809116 	0
0.0188548 	0 	38.7626 	0.0107951 	0
0.0194261 	0 	39.0685 	0.0107635 	0
0.0199975 	0 	39.3204 	0.00966755 	0
0.0205688 	0 	39.5141 	0.00805833 	0
0.0211402 	0 	39.7042 	0.00645764 	0
0.0217116 	0 	39.8704 	0.00491201 	0
0.0222829 	0 	40.0365 	0.00336638 	0
0.0228543 	0 	40.17 	0.00190482 	0
0.0234256 	0 	40.3011 	0.000449087 	0
0.023997 	5.69072e-15 	40.4135 	-0.000976725 	0
0.0285678 	0 	40.7242 	-0.0113775 	0
0.0291392 	0 	40.7162 	-0.012585 	0
0.0297106 	0 	40.7016 	-0.0137579 	0
0.0302819 	0 	40.6773 	-0.0148811 	0
0.0308533 	0 	40.6531 	-0.0160042 	0
0.0314246 	0 	40.6288 	-0.0171274 	0
0.031996 	0 	40.6053 	-0.0182453 	0
0.0325673 	0 	40.5942 	-0.0192728 	0
0.0331387 	0 	40.5832 	-0.0203003 	0
0.0337101 	0 	40.5722 	-0.0213277 	0
0.0342814 	0 	40.5611 	-0.0223552 	0
0.0348528 	-4.51147e-15 	40.5511 	-0.0233781 	0
0.0354241 	0 	40.5566 	-0.0243312 	0
0.0359955 	0 	40.5621 	-0.0252842 	0
0.0365668 	0 	40.5676 	-0.0262372 	0
0.0371382 	0 	40.5731 	-0.0271903 	0
0.0377095 	4.26815e-15 	40.5786 	-0.0281433 	0
0.0382809 	3.93093e-15 	40.5826 	-0.0290538 	0
0.0422804 	3.58095e-15 	40.5891 	-0.0347702 	0
0.0428518 	-3.74552e-15 	40.5868 	-0.0355083 	0
0.0434231 	3.58095e-15 	40.5844 	-0.0362463 	0
0.0439945 	0 	40.5821 	-0.0369843 	0
0.0445658 	0 	40.5797 	-0.0377224 	0
0.0451372 	0 	40.5774 	-0.0384604 	0
0.0457085 	3.58095e-15 	40.5751 	-0.0391985 	0
0.0468513 	3.22449e-15 	40.5738 	-0.0405472 	0
0.0571357 	0 	40.5776 	-0.05079 	0
0.057707 	0 	40.5781 	-0.0512175 	0
0.0582784 	0 	40.5786 	-0.0516451 	0
0.0588497 	0 	40.579 	-0.0520726 	0
0.0594211 	-2.57036e-15 	40.5795 	-0.0525001 	0
0.0599925 	0 	40.58 	-0.0529276 	0
0.0605638 	0 	40.5804 	-0.0533552 	0
0.0611352 	0 	40.5809 	-0.0537827 	0
0.0617065 	0 	40.5814 	-0.0542102 	0
0.0622779 	2.49242e-15 	40.5818 	-0.0546377 	0
0.0628492 	0 	40.5823 	-0.0550653 	0
0.0634206 	-2.20436e-15 	40.5829 	-0.0554562 	0
0.063992 	0 	40.5837 	-0.055789 	0
0.0645633 	0 	40.5845 	-0.0561218 	0
0.0651347 	4.27477e-15 	40.5854 	-0.0564546 	0
0.0754191 	1.59633e-15 	40.6046 	-0.0619081 	0
0.0759905 	-1.70762e-15 	40.6063 	-0.0621285 	0
0.0765618 	0 	40.6081 	-0.062349 	0
0.0771332 	1.59633e-15 	40.6098 	-0.0625695 	0
0.0777045 	0 	40.6116 	-0.0627899 	0
0.0782759 	0 	40.6133 	-0.0630104 	0
0.0788472 	0 	40.6151 	-0.0632309 	0
0.0794186 	0 	40.6168 	-0.0634514 	0
0.0799899 	0 	40.6186 	-0.0636718 	0
0.0805613 	-1.55398e-15 	40.6206 	-0.0638753 	0
0.0811327 	0 	40.623 	-0.0640635 	0
0.081704 	1.41984e-15 	40.6253 	-0.0642518 	0
0.0822754 	0 	40.6277 	-0.06444 	0
0.0828467 	-1.55398e-15 	40.63 	-0.0646283 	0
0.0834181 	1.41984e-15 	40.6324 	-0.0648165 	0
0.0839894 	0 	40.6347 	-0.0650048 	0
0.0845608 	0 	40.6371 	-0.065193 	0
0.0851322 	0 	40.6402 	-0.0653498 	0
0.0857035 	-1.43996e-15 	40.6432 	-0.0655066 	0
0.0862749 	1.29057e-15 	40.6463 	-0.0656634 	0
0.0868462 	-1.43996e-15 	40.6494 	-0.0658202 	0
0.0874176 	2.58115e-15 	40.6525 	-0.065977 	0
0.0919884 	-1.29221e-15 	40.6842 	-0.0670649 	0
0.0925598 	1.13458e-15 	40.6894 	-0.0671738 	0
0.0931312 	0 	40.6947 	-0.0672827 	0
0.0937025 	0 	40.6999 	-0.0673916 	0
0.0942739 	0 	40.7052 	-0.0675005 	0
0.0948452 	0 	40.7115 	-0.067585 	0
0.0954166 	0 	40.7183 	-0.0676601 	0
0.0959879 	0 	40.725 	-0.0677351 	0
0.0965593 	0 	40.7318 	-0.0678102 	0
0.0971307 	0 	40.7392 	-0.0678622 	0
0.097702 	0 	40.7479 	-0.067874 	0
0.0982734 	0 	40.7565 	-0.0678857 	0
0.0988447 	-1.14103e-15 	40.7651 	-0.0678975 	0
0.0994161 	1.05469e-15 	40.7751 	-0.0678842 	0
0.0999874 	0 	40.7862 	-0.0678515 	0
0.100559 	0 	40.7972 	-0.0678189 	0
0.10113 	1.03957e-15 	40.8085 	-0.0677745 	0
0.102844 	1.01776e-15 	40.8272 	-0.0673734 	0
0.104558 	0 	40.5023 	-0.0631896 	0
0.10513 	1.0068e-15 	40.2145 	-0.0595691 	0
0.105701 	0 	39.7189 	-0.0534592 	0
0.106272 	0 	39.1063 	-0.045946 	0
0.106844 	0 	38.3781 	-0.0383337 	0
0.107415 	0 	37.6022 	-0.0307481 	0
0.107986 	0 	36.7672 	-0.0244482 	0
0.108558 	0 	35.916 	-0.0187665 	0
0.109129 	0 	35.048 	-0.0138876 	0
0.109701 	0 	34.162 	-0.0100009 	0
0.110272 	3.64988e-16 	33.2405 	-0.0070027 	0
0.110843 	0 	32.2459 	-0.00470965 	0
0.111415 	7.3735e-16 	31.1276 	-0.00296137 	0
0.111986 	4.17132e-16 	29.7563 	-0.0017449 	0
0.112557 	7.2252e-16 	27.8813 	-0.000933072 	0
0.113129 	0 	24.6188 	-0.000404877 	0
0.1137 	-0.0137009 	1.36587 	-1.54184e-06 	0
