0 	0.232123 	1.38706 	-2.12213e-05 	0
0.000571357 	0 	17.5841 	-0.00284633 	0
0.00114271 	0 	19.8481 	-0.00678363 	0
0.00171407 	0 	21.0039 	-0.0115302 	0
0.00228543 	0 	21.7894 	-0.0167372 	0
0.00285678 	0 	22.4064 	-0.0221541 	0
0.00342814 	0 	22.9303 	-0.0276279 	0
0.0039995 	0 	23.401 	-0.0330562 	0
0.00457085 	0 	23.8397 	-0.0383721 	0
0.00514221 	0 	24.2592 	-0.0435264 	0
0.00571357 	0 	24.6688 	-0.0484883 	0
0.00628492 	0 	25.0747 	-0.0532378 	0
0.00685628 	0 	25.4814 	-0.0577608 	0
0.00742764 	0 	25.8926 	-0.0620496 	0
0.00799899 	0 	26.3123 	-0.06608 	0
0.00857035 	0 	26.7423 	-0.0698824 	0
0.00914171 	0 	27.1875 	-0.0734181 	0
0.00971307 	0 	27.6487 	-0.0767263 	0
0.0102844 	0 	28.1316 	-0.0797849 	0
0.0108558 	0 	28.6413 	-0.0826056 	0
0.0114271 	0 	29.202 	-0.0851793 	0
0.0119985 	0 	29.9149 	-0.0874193 	0
0.0125698 	0 	30.7563 	-0.089326 	0
0.0131412 	-2.80718e-15 	31.945 	-0.0920627 	0
0.0137126 	0 	32.4928 	-0.0936519 	0
0.0142839 	0 	33.0261 	-0.0946588 	0
0.0148553 	0 	33.5594 	-0.095067 	0
0.0154266 	5.01571e-17 	34.0978 	-0.094872 	0
0.015998 	0 	34.645 	-0.0940098 	0
0.0165693 	0 	35.2036 	-0.092513 	0
0.0171407 	0 	35.7781 	-0.090349 	0
0.0177121 	0 	36.3748 	-0.0874585 	0
0.0182834 	0 	36.9981 	-0.0836484 	0
0.0188548 	0 	37.6652 	-0.0780213 	0
0.0194261 	0 	38.2943 	-0.0723105 	0
0.0199975 	0 	38.8971 	-0.0667671 	0
0.0205688 	0 	39.2853 	-0.0648355 	0
0.0211402 	0 	39.6506 	-0.0632185 	0
0.0217116 	0 	39.8676 	-0.0636306 	0
0.0222829 	0 	40.0846 	-0.0640428 	0
0.0228543 	0 	40.2535 	-0.064465 	0
0.0234256 	0 	40.4191 	-0.064888 	0
0.023997 	1.89164e-16 	40.5672 	-0.0652755 	0
0.0285678 	0 	41.1348 	-0.0670925 	0
0.0291392 	0 	41.149 	-0.0672027 	0
0.0297106 	0 	41.1492 	-0.0672921 	0
0.0302819 	0 	41.1292 	-0.0673515 	0
0.0308533 	0 	41.1093 	-0.0674109 	0
0.0314246 	0 	41.0894 	-0.0674703 	0
0.031996 	0 	41.0697 	-0.06753 	0
0.0325673 	0 	41.053 	-0.0675933 	0
0.0331387 	0 	41.0363 	-0.0676566 	0
0.0337101 	0 	41.0196 	-0.0677199 	0
0.0342814 	0 	41.0029 	-0.0677832 	0
0.0348528 	-1.6755e-16 	40.9873 	-0.0678494 	0
0.0354241 	0 	40.9904 	-0.0679599 	0
0.0359955 	0 	40.9934 	-0.0680703 	0
0.0365668 	0 	40.9965 	-0.0681808 	0
0.0371382 	0 	40.9995 	-0.0682913 	0
0.0377095 	2.23929e-16 	41.0025 	-0.0684018 	0
0.0382809 	2.31272e-16 	41.0055 	-0.0685058 	0
0.0422804 	2.34666e-16 	41.021 	-0.0691475 	0
0.0428518 	-1.76479e-16 	41.0191 	-0.0692421 	0
0.0434231 	2.34666e-16 	41.0172 	-0.0693367 	0
0.0439945 	0 	41.0153 	-0.0694314 	0
0.0445658 	0 	41.0134 	-0.069526 	0
0.0451372 	0 	41.0115 	-0.0696206 	0
0.0457085 	2.34666e-16 	41.0096 	-0.0697152 	0
0.0468513 	2.34892e-16 	41.0088 	-0.0699059 	0
0.0571357 	0 	41.0159 	-0.0715898 	0
0.057707 	0 	41.0165 	-0.0716825 	0
0.0582784 	0 	41.0172 	-0.0717752 	0
0.0588497 	0 	41.0179 	-0.0718679 	0
0.0594211 	-1.64336e-16 	41.0185 	-0.0719606 	0
0.0599925 	0 	41.0192 	-0.0720533 	0
0.0605638 	0 	41.0199 	-0.072146 	0
0.0611352 	0 	41.0205 	-0.0722387 	0
0.0617065 	0 	41.0212 	-0.0723314 	0
0.0622779 	2.21733e-16 	41.0218 	-0.0724241 	0
0.0628492 	0 	41.0225 	-0.0725168 	0
0.0634206 	-1.47959e-16 	41.0233 	-0.0726057 	0
0.063992 	0 	41.0243 	-0.0726883 	0
0.0645633 	0 	41.0253 	-0.072771 	0
0.0651347 	4.20097e-16 	41.0263 	-0.0728537 	0
0.0754191 	1.94112e-16 	41.0485 	-0.0744363 	0
0.0759905 	-1.45863e-16 	41.0504 	-0.0745213 	0
0.0765618 	0 	41.0523 	-0.0746064 	0
0.0771332 	1.94112e-16 	41.0542 	-0.0746915 	0
0.0777045 	0 	41.056 	-0.0747766 	0
0.0782759 	0 	41.0579 	-0.0748616 	0
0.0788472 	0 	41.0598 	-0.0749467 	0
0.0794186 	0 	41.0617 	-0.0750318 	0
0.0799899 	0 	41.0635 	-0.0751169 	0
0.0805613 	-1.60115e-16 	41.0657 	-0.0752064 	0
0.0811327 	0 	41.0682 	-0.0752999 	0
0.081704 	1.94955e-16 	41.0706 	-0.0753934 	0
0.0822754 	0 	41.073 	-0.075487 	0
0.0828467 	-1.60115e-16 	41.0755 	-0.0755805 	0
0.0834181 	1.94955e-16 	41.0779 	-0.075674 	0
0.0839894 	0 	41.0804 	-0.0757675 	0
0.0845608 	0 	41.0828 	-0.0758611 	0
0.0851322 	0 	41.086 	-0.0759541 	0
0.0857035 	-1.79352e-16 	41.0891 	-0.0760472 	0
0.0862749 	2.04981e-16 	41.0923 	-0.0761403 	0
0.0868462 	-1.79352e-16 	41.0954 	-0.0762334 	0
0.0874176 	4.09961e-16 	41.0986 	-0.0763265 	0
0.0919884 	-2.21486e-16 	41.1304 	-0.0770759 	0
0.0925598 	2.50868e-16 	41.1356 	-0.0771642 	0
0.0931312 	0 	41.1409 	-0.0772524 	0
0.0937025 	0 	41.1461 	-0.0773406 	0
0.0942739 	0 	41.1513 	-0.0774288 	0
0.0948452 	0 	41.1576 	-0.0774996 	0
0.0954166 	0 	41.1643 	-0.0775635 	0
0.0959879 	0 	41.171 	-0.0776274 	0
0.0965593 	0 	41.1777 	-0.0776914 	0
0.0971307 	0 	41.185 	-0.0777361 	0
0.097702 	0 	41.1936 	-0.0777472 	0
0.0982734 	0 	41.2021 	-0.0777583 	0
0.0988447 	-1.71402e-16 	41.2106 	-0.0777694 	0
0.0994161 	3.51311e-16 	41.2205 	-0.0777543 	0
0.0999874 	0 	41.2313 	-0.0777189 	0
0.100559 	0 	41.2421 	-0.0776836 	0
0.10113 	3.70956e-16 	41.2535 	-0.0776252 	0
0.102844 	3.70532e-16 	41.2795 	-0.0771631 	0
0.104558 	0 	41.0264 	-0.0738104 	0
0.10513 	3.71742e-16 	40.7823 	-0.0707192 	0
0.105701 	0 	40.3241 	-0.0648655 	0
0.106272 	0 	39.7454 	-0.0574546 	0
0.106844 	0 	39.0308 	-0.0495495 	0
0.107415 	0 	38.2603 	-0.0415147 	0
0.107986 	0 	37.4239 	-0.0346875 	0
0.108558 	0 	36.5675 	-0.0283871 	0
0.109129 	0 	35.6903 	-0.0227869 	0
0.109701 	0 	34.7916 	-0.0180725 	0
0.110272 	1.78885e-15 	33.8541 	-0.0141386 	0
0.110843 	0 	32.8411 	-0.0108171 	0
0.111415 	9.94949e-17 	31.6997 	-0.00795696 	0
0.111986 	1.93249e-15 	30.2957 	-0.00551857 	0
0.112557 	6.42148e-17 	28.3744 	-0.00339527 	0
0.113129 	0 	25.0441 	-0.00151962 	0
0.1137 	-0.0652099 	1.40258 	-1.73779e-06 	0
