0 	-0.0410922 	0.742116 	-3.08068e-06 	0
0.000571357 	0 	21.2582 	-0.007407 	0
0.00114271 	-9.67137e-15 	23.2372 	-0.0192204 	0
0.00228543 	0 	22.9231 	-0.0519183 	0
0.00285678 	0 	22.3633 	-0.0677795 	0
0.00342814 	0 	21.8812 	-0.0809909 	0
0.0039995 	0 	21.5656 	-0.0904864 	0
0.00457085 	-8.48318e-15 	21.4442 	-0.0956234 	0
0.00571357 	-1.88861e-14 	21.7335 	-0.0922633 	0
0.00685628 	0 	22.5272 	-0.0728697 	0
0.00742764 	0 	23.0327 	-0.0587071 	0
0.00799899 	-2.11293e-14 	23.5754 	-0.0426085 	0
0.00914171 	0 	24.7056 	-0.00861758 	0
0.00971307 	0 	25.2616 	0.00759695 	0
0.0102844 	0 	25.8176 	0.0226948 	0
0.0108558 	0 	26.3814 	0.0360212 	0
0.0114271 	0 	26.9684 	0.0469801 	0
0.0119985 	0 	27.6185 	0.0545949 	0
0.0125698 	0 	28.3785 	0.0564435 	0
0.0131412 	0 	29.1509 	0.0513965 	0
0.0137126 	0 	29.6911 	0.0479781 	0
0.0142839 	0 	30.2094 	0.0467912 	0
0.0148553 	0 	30.7252 	0.0474065 	0
0.0154266 	0 	31.243 	0.0495206 	0
0.015998 	0 	31.7657 	0.0530199 	0
0.0165693 	0 	32.2948 	0.0577778 	0
0.0171407 	0 	32.8316 	0.0637252 	0
0.0177121 	0 	33.3782 	0.0709602 	0
0.0182834 	0 	33.9346 	0.0792602 	0
0.0188548 	0 	34.5041 	0.0887572 	0
0.0194261 	0 	35.0901 	0.0994744 	0
0.0199975 	0 	35.6963 	0.111354 	0
0.0205688 	0 	36.3284 	0.124671 	0
0.0211402 	0 	36.9837 	0.139792 	0
0.0217116 	0 	37.5843 	0.153982 	0
0.0222829 	0 	38.0219 	0.162926 	0
0.0228543 	0 	38.3461 	0.168757 	0
0.0234256 	0 	38.5899 	0.172625 	0
0.023997 	0 	38.7755 	0.175823 	0
0.0245683 	0 	38.9333 	0.178684 	0
0.0251397 	0 	39.0722 	0.181317 	0
0.0257111 	0 	39.1727 	0.183509 	0
0.0262824 	0 	39.267 	0.185623 	0
0.0268538 	0 	39.34 	0.187462 	0
0.0274251 	0 	39.4112 	0.18926 	0
0.0279965 	0 	39.4759 	0.190923 	0
0.0285678 	0 	39.5398 	0.192569 	0
0.0291392 	0 	39.5986 	0.194121 	0
0.0297106 	0 	39.6573 	0.195673 	0
0.0302819 	0 	39.6978 	0.197086 	0
0.0308533 	0 	39.7361 	0.198482 	0
0.0314246 	0 	39.7597 	0.19978 	0
0.031996 	0 	39.7661 	0.200962 	0
0.0325673 	0 	39.7725 	0.202145 	0
0.0331387 	0 	39.7633 	0.203199 	0
0.0337101 	0 	39.7509 	0.204228 	0
0.0342814 	0 	39.7386 	0.205257 	0
0.0348528 	0 	39.7317 	0.206286 	0
0.0354241 	0 	39.7248 	0.207316 	0
0.0359955 	0 	39.7179 	0.208345 	0
0.0365668 	0 	39.7166 	0.209394 	0
0.0371382 	0 	39.7158 	0.210445 	0
0.0377095 	3.93847e-15 	39.715 	0.211496 	0
0.0382809 	-3.83255e-15 	39.7125 	0.212516 	0
0.0388523 	0 	39.709 	0.213517 	0
0.0394236 	0 	39.7054 	0.214518 	0
0.039995 	0 	39.7021 	0.215519 	0
0.0405663 	0 	39.7026 	0.216505 	0
0.0411377 	0 	39.7032 	0.217491 	0
0.041709 	0 	39.7038 	0.218477 	0
0.0422804 	0 	39.7059 	0.219469 	0
0.0428518 	0 	39.7157 	0.220488 	0
0.0434231 	0 	39.7255 	0.221507 	0
0.0439945 	0 	39.7353 	0.222526 	0
0.0445658 	0 	39.7451 	0.223546 	0
0.0451372 	0 	39.7574 	0.224547 	0
0.0457085 	0 	39.7698 	0.225549 	0
0.0462799 	0 	39.7822 	0.226551 	0
0.0468513 	0 	39.7946 	0.227553 	0
0.0474226 	-2.8281e-15 	39.8048 	0.228528 	0
0.0502794 	-5.06009e-15 	39.8435 	0.233227 	0
0.0531362 	0 	39.8712 	0.237665 	0
0.0537075 	0 	39.8774 	0.238541 	0
0.0542789 	0 	39.8835 	0.239417 	0
0.0548503 	0 	39.8897 	0.240293 	0
0.0554216 	1.92597e-15 	39.8959 	0.241169 	0
0.055993 	-4.41598e-15 	39.9021 	0.242044 	0
0.057707 	0 	39.9202 	0.2446 	0
0.0582784 	0 	39.9262 	0.245449 	0
0.0588497 	0 	39.9322 	0.246298 	0
0.0594211 	0 	39.9382 	0.247147 	0
0.0599925 	0 	39.9436 	0.247986 	0
0.0605638 	0 	39.9486 	0.248815 	0
0.0611352 	0 	39.9535 	0.249644 	0
0.0617065 	0 	39.9585 	0.250473 	0
0.0622779 	0 	39.9634 	0.251302 	0
0.0628492 	0 	39.9683 	0.252131 	0
0.0634206 	0 	39.9733 	0.25296 	0
0.063992 	0 	39.9776 	0.253798 	0
0.0645633 	0 	39.9817 	0.254637 	0
0.0651347 	7.25486e-16 	39.9859 	0.255476 	0
0.065706 	-1.07721e-15 	39.9901 	0.256315 	0
0.0662774 	0 	39.9942 	0.257154 	0
0.0668487 	0 	39.9984 	0.257992 	0
0.0674201 	0 	40.0025 	0.258846 	0
0.0679915 	0 	40.0067 	0.259749 	0
0.0685628 	0 	40.0108 	0.260653 	0
0.0691342 	0 	40.0149 	0.261557 	0
0.0697055 	3.43055e-16 	40.019 	0.262461 	0
0.0702769 	-6.78226e-16 	40.0231 	0.263364 	0
0.0708482 	0 	40.0272 	0.264275 	0
0.0714196 	0 	40.032 	0.265267 	0
0.071991 	0 	40.0367 	0.26626 	0
0.0725623 	0 	40.0414 	0.267253 	0
0.0731337 	0 	40.0461 	0.268245 	0
0.073705 	0 	40.0508 	0.269238 	0
0.0742764 	0 	40.056 	0.270279 	0
0.0748477 	0 	40.0621 	0.271397 	0
0.0754191 	0 	40.0682 	0.272515 	0
0.0759905 	-2.87151e-16 	40.0743 	0.273632 	0
0.0765618 	2.31322e-17 	40.0804 	0.27475 	0
0.0771332 	0 	40.0866 	0.275886 	0
0.0777045 	-5.31608e-16 	40.0936 	0.27716 	0
0.0782759 	0 	40.1007 	0.278435 	0
0.0788472 	3.18556e-16 	40.1078 	0.279709 	0
0.0794186 	-5.31608e-16 	40.1148 	0.280983 	0
0.0799899 	5.78384e-16 	40.1219 	0.282298 	0
0.0805613 	0 	40.1289 	0.283739 	0
0.0811327 	0 	40.1359 	0.28518 	0
0.081704 	0 	40.1429 	0.286621 	0
0.0822754 	0 	40.1499 	0.288063 	0
0.0828467 	0 	40.1568 	0.289635 	0
0.0834181 	0 	40.1635 	0.291257 	0
0.0839894 	0 	40.1703 	0.292878 	0
0.0845608 	0 	40.177 	0.2945 	0
0.0851322 	-1.00585e-15 	40.1837 	0.296217 	0
0.0857035 	2.00616e-15 	40.1903 	0.298011 	0
0.0874176 	0 	40.2103 	0.303491 	0
0.0879889 	0 	40.217 	0.305427 	0
0.0885603 	0 	40.2237 	0.307362 	0
0.0891317 	0 	40.2306 	0.309306 	0
0.089703 	0 	40.2382 	0.311315 	0
0.0902744 	0 	40.2458 	0.313325 	0
0.0908457 	0 	40.2534 	0.315334 	0
0.0914171 	0 	40.2605 	0.317305 	0
0.0919884 	0 	40.2674 	0.319266 	0
0.0925598 	0 	40.2743 	0.321227 	0
0.0931312 	0 	40.2687 	0.322957 	0
0.0937025 	0 	40.2585 	0.324601 	0
0.0942739 	0 	40.2483 	0.326245 	0
0.0948452 	0 	40.1791 	0.326803 	0
0.0954166 	0 	40.1027 	0.327228 	0
0.0959879 	0 	39.9798 	0.327788 	0
0.0965593 	0 	39.7267 	0.328726 	0
0.0971307 	0 	39.4736 	0.329663 	0
0.097702 	0 	39.0092 	0.332662 	0
0.0982734 	0 	38.5017 	0.336082 	0
0.0988447 	0 	37.9067 	0.33885 	0
0.0994161 	0 	37.2481 	0.341142 	0
0.0999874 	0 	36.5651 	0.341899 	0
0.100559 	0 	35.8573 	0.341091 	0
0.10113 	0 	35.1146 	0.339049 	0
0.101702 	0 	34.3451 	0.336061 	0
0.102273 	0 	33.5438 	0.331253 	0
0.102844 	0 	32.7351 	0.325588 	0
0.103416 	0 	31.9377 	0.31757 	0
0.103987 	0 	31.1721 	0.307941 	0
0.104558 	-1.84209e-14 	30.4383 	0.296833 	0
0.10513 	6.3656e-15 	29.752 	0.283943 	0
0.105701 	0 	29.1004 	0.269429 	0
0.106272 	0 	28.4722 	0.253667 	0
0.106844 	0 	27.8667 	0.2368 	0
0.107415 	0 	27.2832 	0.219001 	0
0.107986 	0 	26.7198 	0.200406 	0
0.108558 	0 	26.1733 	0.18118 	0
0.109129 	7.89232e-15 	25.6396 	0.161491 	0
0.110272 	0 	24.5846 	0.121448 	0
0.110843 	8.63593e-15 	24.0425 	0.101486 	0
0.111415 	-3.45283e-14 	23.4663 	0.0818382 	0
0.111986 	9.20574e-15 	22.8253 	0.0627091 	0
0.112557 	0 	22.0539 	0.0443853 	0
0.113129 	0 	20.9851 	0.027302 	0
0.1137 	0 	18.9841 	0.0122033 	0
