0 	-67.728 	0 	0 	0
0.000571357 	-68.1559 	-1.55455 	-0.114657 	0
0.00114271 	-68.8334 	-0.896099 	-0.250178 	0
0.00171407 	-69.4569 	-0.239123 	-0.387286 	0
0.00228543 	-69.9822 	0.451733 	-0.525067 	0
0.00285678 	-70.4084 	1.19472 	-0.662919 	0
0.00342814 	-70.7461 	2.00481 	-0.800822 	0
0.0039995 	-71.0127 	2.89134 	-0.938461 	0
0.00457085 	-71.2234 	3.86321 	-1.07573 	0
0.00514221 	-71.3921 	4.92847 	-1.21248 	0
0.00571357 	-71.5324 	6.09197 	-1.34857 	0
0.00628492 	-71.5914 	7.36343 	-1.48333 	0
0.00685628 	-71.5251 	8.78986 	-1.61638 	0
0.00742764 	-71.4819 	10.3966 	-1.74714 	0
0.00799899 	-71.5114 	12.1541 	-1.87384 	0
0.00857035 	-71.5693 	14.0157 	-1.99723 	0
0.00914171 	-71.6562 	15.9699 	-2.11547 	0
0.00971307 	-71.7717 	17.9822 	-2.2295 	0
0.0102844 	-71.9415 	20.0064 	-2.33684 	0
0.0108558 	-72.1559 	21.9889 	-2.43676 	0
0.0114271 	-72.3776 	23.9178 	-2.52889 	0
0.0119985 	-72.5928 	25.8448 	-2.61288 	0
0.0125698 	-72.7601 	27.4864 	-2.67623 	0
0.0131412 	-72.9327 	30.0291 	-2.75303 	0
0.0137126 	-73.2154 	32.5005 	-2.80555 	0
0.0142839 	-73.5817 	34.6037 	-2.83536 	0
0.0148553 	-73.9268 	35.2901 	-2.83304 	0
0.0154266 	-74.2632 	35.8536 	-2.83103 	0
0.015998 	-74.5977 	36.273 	-2.81851 	0
0.0165693 	-74.9187 	36.6939 	-2.80681 	0
0.0171407 	-75.2358 	37.1012 	-2.79454 	0
0.0177121 	-75.5493 	37.484 	-2.78093 	0
0.0182834 	-75.8391 	37.849 	-2.76624 	0
0.0188548 	-76.1283 	38.1914 	-2.75057 	0
0.0194261 	-76.4265 	38.5165 	-2.73449 	0
0.0199975 	-76.6859 	38.8348 	-2.71764 	0
0.0205688 	-76.9686 	39.1308 	-2.70062 	0
0.0211402 	-77.2184 	39.4243 	-2.68309 	0
0.0217116 	-77.4861 	39.6974 	-2.66547 	0
0.0222829 	-77.7137 	39.971 	-2.64731 	0
0.0228543 	-77.9806 	40.2239 	-2.62954 	0
0.0234256 	-78.1909 	40.4757 	-2.61102 	0
0.023997 	-78.421 	40.7179 	-2.59276 	0
0.0245683 	-78.6478 	40.9466 	-2.57451 	0
0.0251397 	-78.8399 	41.1756 	-2.55583 	0
0.0257111 	-79.0548 	41.3879 	-2.53721 	0
0.0262824 	-79.262 	41.5856 	-2.51834 	0
0.0268538 	-79.4338 	41.784 	-2.49908 	0
0.0274251 	-79.614 	41.971 	-2.47962 	0
0.0279965 	-79.8261 	42.1153 	-2.45941 	0
0.0285678 	-79.9787 	42.2619 	-2.43867 	0
0.0291392 	-80.1298 	42.4086 	-2.41792 	0
0.0297106 	-80.2949 	42.5219 	-2.39602 	0
0.0302819 	-80.4803 	42.5874 	-2.37246 	0
0.0308533 	-80.6087 	42.6552 	-2.34844 	0
0.0314246 	-80.7367 	42.7231 	-2.32441 	0
0.031996 	-80.8663 	42.7872 	-2.30029 	0
0.0325673 	-81.0237 	42.7847 	-2.27459 	0
0.0331387 	-81.1585 	42.7824 	-2.24867 	0
0.0337101 	-81.2633 	42.7804 	-2.22246 	0
0.0342814 	-81.3681 	42.7783 	-2.19625 	0
0.0348528 	-81.4744 	42.7759 	-2.17017 	0
0.0354241 	-81.6042 	42.7693 	-2.14604 	0
0.0359955 	-81.7247 	42.7625 	-2.12182 	0
0.0365668 	-81.8074 	42.7546 	-2.09718 	0
0.0371382 	-81.89 	42.7467 	-2.07255 	0
0.0377095 	-81.9727 	42.7388 	-2.04791 	0
0.0382809 	-82.0624 	42.7355 	-2.02417 	0
0.0388523 	-82.1662 	42.7411 	-2.00219 	0
0.0394236 	-82.2615 	42.7465 	-1.98012 	0
0.039995 	-82.3234 	42.751 	-1.95773 	0
0.0405663 	-82.3853 	42.7554 	-1.93534 	0
0.0411377 	-82.4472 	42.7599 	-1.91295 	0
0.041709 	-82.509 	42.7644 	-1.89056 	0
0.0422804 	-82.5854 	42.7671 	-1.86962 	0
0.0428518 	-82.6661 	42.7692 	-1.8491 	0
0.0434231 	-82.7351 	42.7711 	-1.82848 	0
0.0439945 	-82.7793 	42.7724 	-1.80765 	0
0.0445658 	-82.8236 	42.7737 	-1.78682 	0
0.0451372 	-82.8679 	42.7751 	-1.76599 	0
0.0457085 	-82.9121 	42.7764 	-1.74515 	0
0.0462799 	-82.9602 	42.7779 	-1.7248 	0
0.0468513 	-83.0201 	42.7801 	-1.7059 	0
0.0474226 	-83.08 	42.7822 	-1.687 	0
0.047994 	-83.1262 	42.7841 	-1.66799 	0
0.0485653 	-83.1549 	42.7855 	-1.64885 	0
0.0491367 	-83.1836 	42.7869 	-1.62971 	0
0.049708 	-83.2123 	42.7884 	-1.61057 	0
0.0502794 	-83.241 	42.7898 	-1.59143 	0
0.0508508 	-83.2697 	42.7912 	-1.57229 	0
0.0514221 	-83.3069 	42.793 	-1.55426 	0
0.0519935 	-83.3495 	42.7949 	-1.53692 	0
0.0525648 	-83.392 	42.7968 	-1.51958 	0
0.0531362 	-83.4241 	42.7984 	-1.50218 	0
0.0537075 	-83.4405 	42.7997 	-1.48466 	0
0.0542789 	-83.4569 	42.801 	-1.46714 	0
0.0548503 	-83.4733 	42.8023 	-1.44963 	0
0.0554216 	-83.4897 	42.8036 	-1.43211 	0
0.055993 	-83.5061 	42.8049 	-1.4146 	0
0.0565643 	-83.5225 	42.8062 	-1.39708 	0
0.0571357 	-83.5472 	42.8078 	-1.38105 	0
0.057707 	-83.5751 	42.8095 	-1.36557 	0
0.0582784 	-83.603 	42.8113 	-1.35009 	0
0.0588497 	-83.6301 	42.813 	-1.3346 	0
0.0594211 	-83.6372 	42.8142 	-1.319 	0
0.0599925 	-83.6442 	42.8155 	-1.30339 	0
0.0605638 	-83.6512 	42.8167 	-1.28779 	0
0.0611352 	-83.6583 	42.8179 	-1.27218 	0
0.0617065 	-83.6653 	42.8192 	-1.25658 	0
0.0622779 	-83.6723 	42.8204 	-1.24098 	0
0.0628492 	-83.6793 	42.8216 	-1.22537 	0
0.0634206 	-83.6906 	42.8231 	-1.21029 	0
0.063992 	-83.7086 	42.8248 	-1.19603 	0
0.0645633 	-83.7266 	42.8265 	-1.18177 	0
0.0651347 	-83.7446 	42.8282 	-1.16752 	0
0.065706 	-83.7508 	42.8297 	-1.1532 	0
0.0662774 	-83.7519 	42.831 	-1.13885 	0
0.0668487 	-83.7531 	42.8323 	-1.12451 	0
0.0674201 	-83.7542 	42.8336 	-1.11017 	0
0.0679915 	-83.7553 	42.8349 	-1.09582 	0
0.0685628 	-83.7564 	42.8363 	-1.08148 	0
0.0691342 	-83.7575 	42.8376 	-1.06713 	0
0.0697055 	-83.7591 	42.8389 	-1.05282 	0
0.0702769 	-83.7711 	42.8408 	-1.03914 	0
0.0708482 	-83.783 	42.8427 	-1.02546 	0
0.0714196 	-83.7949 	42.8446 	-1.01178 	0
0.071991 	-83.7952 	42.8462 	-0.998042 	0
0.0725623 	-83.7931 	42.8478 	-0.984297 	0
0.0731337 	-83.7909 	42.8494 	-0.970552 	0
0.073705 	-83.7888 	42.8509 	-0.956807 	0
0.0742764 	-83.7866 	42.8525 	-0.943062 	0
0.0748477 	-83.7844 	42.8541 	-0.929317 	0
0.0754191 	-83.7838 	42.8557 	-0.915691 	0
0.0759905 	-83.7917 	42.8579 	-0.902711 	0
0.0765618 	-83.7996 	42.86 	-0.889731 	0
0.0771332 	-83.8034 	42.8621 	-0.876735 	0
0.0777045 	-83.7996 	42.864 	-0.863708 	0
0.0782759 	-83.7958 	42.8658 	-0.850682 	0
0.0788472 	-83.792 	42.8677 	-0.837655 	0
0.0794186 	-83.7882 	42.8696 	-0.824629 	0
0.0799899 	-83.7843 	42.8715 	-0.811603 	0
0.0805613 	-83.7854 	42.8737 	-0.798865 	0
0.0811327 	-83.7908 	42.8763 	-0.786386 	0
0.081704 	-83.7954 	42.8788 	-0.773905 	0
0.0822754 	-83.791 	42.8811 	-0.761391 	0
0.0828467 	-83.7866 	42.8834 	-0.748877 	0
0.0834181 	-83.7822 	42.8858 	-0.736363 	0
0.0839894 	-83.7777 	42.8881 	-0.72385 	0
0.0845608 	-83.7733 	42.8904 	-0.711337 	0
0.0851322 	-83.7771 	42.8935 	-0.699241 	0
0.0857035 	-83.7809 	42.8966 	-0.687146 	0
0.0862749 	-83.7774 	42.8995 	-0.675026 	0
0.0868462 	-83.7728 	42.9024 	-0.662903 	0
0.0874176 	-83.7683 	42.9053 	-0.65078 	0
0.0879889 	-83.7637 	42.9081 	-0.638657 	0
0.0885603 	-83.7623 	42.9114 	-0.62667 	0
0.0891317 	-83.765 	42.9153 	-0.614855 	0
0.089703 	-83.7637 	42.919 	-0.603028 	0
0.0902744 	-83.7593 	42.9226 	-0.591191 	0
0.0908457 	-83.7549 	42.9262 	-0.579355 	0
0.0914171 	-83.7505 	42.9299 	-0.567518 	0
0.0919884 	-83.7507 	42.9343 	-0.555855 	0
0.0925598 	-83.7521 	42.9391 	-0.544261 	0
0.0931312 	-83.748 	42.9437 	-0.532649 	0
0.0937025 	-83.7439 	42.9483 	-0.521038 	0
0.0942739 	-83.7397 	42.9529 	-0.509426 	0
0.0948452 	-83.7397 	42.9584 	-0.497949 	0
0.0954166 	-83.7396 	42.9644 	-0.486518 	0
0.0959879 	-83.7358 	42.9702 	-0.475077 	0
0.0965593 	-83.732 	42.976 	-0.463636 	0
0.0971307 	-83.7301 	42.9825 	-0.45225 	0
0.097702 	-83.7307 	42.9899 	-0.44096 	0
0.0982734 	-83.7273 	42.9973 	-0.429657 	0
0.0988447 	-83.7238 	43.0047 	-0.418354 	0
0.0994161 	-83.7229 	43.0131 	-0.407118 	0
0.0999874 	-83.7219 	43.0224 	-0.395929 	0
0.100559 	-83.7188 	43.0317 	-0.384734 	0
0.10113 	-83.7167 	43.0415 	-0.373564 	0
0.101702 	-83.7164 	43.053 	-0.362468 	0
0.102273 	-83.7136 	43.0644 	-0.351365 	0
0.102844 	-83.7121 	43.0768 	-0.340292 	0
0.103416 	-83.7111 	43.0909 	-0.329267 	0
0.103987 	-83.7086 	43.1049 	-0.318237 	0
0.104558 	-83.7084 	43.1214 	-0.307262 	0
0.10513 	-83.7061 	43.1382 	-0.29629 	0
0.105701 	-83.7056 	43.1571 	-0.285371 	0
0.106272 	-83.7037 	43.177 	-0.274472 	0
0.106844 	-83.7031 	43.1994 	-0.263583 	0
0.107415 	-83.7014 	43.2228 	-0.252692 	0
0.107986 	-83.7006 	43.25 	-0.241901 	0
0.108558 	-83.6998 	43.2728 	-0.231203 	0
0.109129 	-83.6978 	43.2366 	-0.21982 	0
0.109701 	-83.6932 	42.9564 	-0.204867 	0
0.110272 	-83.6896 	41.9688 	-0.178286 	0
0.110843 	-83.6918 	40.1713 	-0.140932 	0
0.111415 	-83.6962 	37.9497 	-0.103707 	0
0.111986 	-83.7075 	35.4772 	-0.0705659 	0
0.112557 	-83.726 	32.6269 	-0.0421816 	0
0.113129 	-83.7518 	28.4127 	-0.0178043 	0
0.1137 	-83.7728 	1.26078e-10 	-4.47605e-15 	0
