0 	0.295654 	1.52691 	-2.4666e-05 	0
0.000571357 	0 	18.5966 	-0.00332936 	0
0.00114271 	0 	20.8884 	-0.00800803 	0
0.00171407 	0 	22.0386 	-0.0135504 	0
0.00228543 	0 	22.8152 	-0.0195698 	0
0.00285678 	0 	23.4249 	-0.0258201 	0
0.00342814 	0 	23.9432 	-0.0321545 	0
0.0039995 	0 	24.4096 	-0.038469 	0
0.00457085 	0 	24.8445 	-0.0446887 	0
0.00514221 	0 	25.2603 	-0.0507506 	0
0.00571357 	0 	25.6655 	-0.0566056 	0
0.00628492 	0 	26.066 	-0.0622126 	0
0.00685628 	0 	26.4656 	-0.0675353 	0
0.00742764 	0 	26.8673 	-0.0725428 	0
0.00799899 	0 	27.2739 	-0.0771778 	0
0.00857035 	0 	27.6863 	-0.0814632 	0
0.00914171 	0 	28.1071 	-0.085318 	0
0.00971307 	0 	28.5364 	-0.0887887 	0
0.0102844 	0 	28.9763 	-0.0918078 	0
0.0108558 	0 	29.428 	-0.0943758 	0
0.0114271 	0 	29.8918 	-0.0965214 	0
0.0119985 	0 	30.3691 	-0.098245 	0
0.0125698 	0 	30.7739 	-0.0993222 	0
0.0131412 	-4.33135e-15 	31.4223 	-0.100153 	0
0.0137126 	0 	32.0716 	-0.100071 	0
0.0142839 	0 	32.7099 	-0.0991422 	0
0.0148553 	0 	33.3261 	-0.0975772 	0
0.0154266 	1.58795e-15 	33.918 	-0.0956291 	0
0.015998 	0 	34.4866 	-0.0934051 	0
0.0165693 	0 	35.0471 	-0.0907982 	0
0.0171407 	0 	35.616 	-0.0875894 	0
0.0177121 	0 	36.2041 	-0.0836037 	0
0.0182834 	0 	36.8164 	-0.0785848 	0
0.0188548 	0 	37.4677 	-0.0714673 	0
0.0194261 	0 	38.113 	-0.0635741 	0
0.0199975 	0 	38.7453 	-0.0556226 	0
0.0205688 	0 	39.1843 	-0.0519398 	0
0.0211402 	0 	39.5954 	-0.0487811 	0
0.0217116 	0 	39.8267 	-0.0490033 	0
0.0222829 	0 	40.0581 	-0.0492255 	0
0.0228543 	0 	40.2229 	-0.0498252 	0
0.0234256 	0 	40.3831 	-0.050451 	0
0.023997 	1.43821e-15 	40.5249 	-0.0510431 	0
0.0285678 	0 	41.0364 	-0.0545815 	0
0.0291392 	0 	41.0452 	-0.0549206 	0
0.0297106 	0 	41.0417 	-0.0552413 	0
0.0302819 	0 	41.0203 	-0.0555355 	0
0.0308533 	0 	40.999 	-0.0558296 	0
0.0314246 	0 	40.9776 	-0.0561238 	0
0.031996 	0 	40.9566 	-0.0564173 	0
0.0325673 	0 	40.941 	-0.0566987 	0
0.0331387 	0 	40.9253 	-0.05698 	0
0.0337101 	0 	40.9097 	-0.0572614 	0
0.0342814 	0 	40.8941 	-0.0575427 	0
0.0348528 	-1.16328e-15 	40.8797 	-0.0578253 	0
0.0354241 	0 	40.8834 	-0.058127 	0
0.0359955 	0 	40.8871 	-0.0584286 	0
0.0365668 	0 	40.8908 	-0.0587302 	0
0.0371382 	0 	40.8946 	-0.0590318 	0
0.0377095 	1.14061e-15 	40.8983 	-0.0593335 	0
0.0382809 	1.06249e-15 	40.9016 	-0.0596206 	0
0.0422804 	9.77806e-16 	40.9158 	-0.061416 	0
0.0428518 	-9.85316e-16 	40.9138 	-0.0616569 	0
0.0434231 	9.77806e-16 	40.9119 	-0.0618977 	0
0.0439945 	0 	40.9099 	-0.0621386 	0
0.0445658 	0 	40.908 	-0.0623795 	0
0.0451372 	0 	40.906 	-0.0626204 	0
0.0457085 	9.77806e-16 	40.9041 	-0.0628612 	0
0.0468513 	8.89223e-16 	40.9032 	-0.0633145 	0
0.0571357 	0 	40.9104 	-0.0669264 	0
0.057707 	0 	40.9111 	-0.0670935 	0
0.0582784 	0 	40.9117 	-0.0672605 	0
0.0588497 	0 	40.9124 	-0.0674275 	0
0.0594211 	-6.88784e-16 	40.913 	-0.0675945 	0
0.0599925 	0 	40.9137 	-0.0677616 	0
0.0605638 	0 	40.9144 	-0.0679286 	0
0.0611352 	0 	40.915 	-0.0680956 	0
0.0617065 	0 	40.9157 	-0.0682627 	0
0.0622779 	6.98556e-16 	40.9164 	-0.0684297 	0
0.0628492 	0 	40.917 	-0.0685967 	0
0.0634206 	-5.87944e-16 	40.9178 	-0.0687523 	0
0.063992 	0 	40.9188 	-0.0688897 	0
0.0645633 	0 	40.9198 	-0.0690271 	0
0.0651347 	1.20609e-15 	40.9208 	-0.0691646 	0
0.0754191 	4.60137e-16 	40.943 	-0.0715865 	0
0.0759905 	-4.67215e-16 	40.9449 	-0.0717001 	0
0.0765618 	0 	40.9467 	-0.0718137 	0
0.0771332 	4.60137e-16 	40.9486 	-0.0719272 	0
0.0777045 	0 	40.9505 	-0.0720408 	0
0.0782759 	0 	40.9524 	-0.0721544 	0
0.0788472 	0 	40.9543 	-0.072268 	0
0.0794186 	0 	40.9561 	-0.0723815 	0
0.0799899 	0 	40.958 	-0.0724951 	0
0.0805613 	-4.41515e-16 	40.9602 	-0.0726083 	0
0.0811327 	0 	40.9627 	-0.0727212 	0
0.081704 	4.18492e-16 	40.9651 	-0.0728342 	0
0.0822754 	0 	40.9676 	-0.0729471 	0
0.0828467 	-4.41515e-16 	40.97 	-0.07306 	0
0.0834181 	4.18492e-16 	40.9724 	-0.0731729 	0
0.0839894 	0 	40.9749 	-0.0732858 	0
0.0845608 	0 	40.9773 	-0.0733987 	0
0.0851322 	0 	40.9805 	-0.0735044 	0
0.0857035 	-4.29276e-16 	40.9837 	-0.0736102 	0
0.0862749 	3.9533e-16 	40.9868 	-0.0737159 	0
0.0868462 	-4.29276e-16 	40.99 	-0.0738216 	0
0.0874176 	7.9066e-16 	40.9932 	-0.0739274 	0
0.0919884 	-4.27451e-16 	41.0252 	-0.074742 	0
0.0925598 	3.93667e-16 	41.0304 	-0.0748342 	0
0.0931312 	0 	41.0356 	-0.0749263 	0
0.0937025 	0 	41.0409 	-0.0750185 	0
0.0942739 	0 	41.0461 	-0.0751106 	0
0.0948452 	0 	41.0524 	-0.0751841 	0
0.0954166 	0 	41.0592 	-0.0752503 	0
0.0959879 	0 	41.0659 	-0.0753166 	0
0.0965593 	0 	41.0726 	-0.0753828 	0
0.0971307 	0 	41.08 	-0.0754293 	0
0.097702 	0 	41.0886 	-0.0754413 	0
0.0982734 	0 	41.0972 	-0.0754533 	0
0.0988447 	-3.5582e-16 	41.1057 	-0.0754653 	0
0.0994161 	4.53301e-16 	41.1156 	-0.0754523 	0
0.0999874 	0 	41.1265 	-0.0754199 	0
0.100559 	0 	41.1374 	-0.0753875 	0
0.10113 	4.657e-16 	41.1488 	-0.0753342 	0
0.102844 	4.61663e-16 	41.1738 	-0.0748934 	0
0.104558 	0 	40.9086 	-0.0714209 	0
0.10513 	4.60937e-16 	40.6568 	-0.0682474 	0
0.105701 	0 	40.1917 	-0.062358 	0
0.106272 	0 	39.6063 	-0.0549376 	0
0.106844 	0 	38.8889 	-0.0470982 	0
0.107415 	0 	38.1173 	-0.039159 	0
0.107986 	0 	37.2811 	-0.032447 	0
0.108558 	0 	36.4258 	-0.0262787 	0
0.109129 	0 	35.5505 	-0.0208298 	0
0.109701 	0 	34.6546 	-0.0162879 	0
0.110272 	1.48464e-15 	33.721 	-0.0125527 	0
0.110843 	0 	32.7124 	-0.00945452 	0
0.111415 	1.93921e-16 	31.5762 	-0.00683976 	0
0.111986 	1.60822e-15 	30.1794 	-0.00467003 	0
0.112557 	1.63051e-16 	28.2682 	-0.00283581 	0
0.113129 	0 	24.9527 	-0.0012614 	0
0.1137 	-0.0541593 	1.39475 	-1.70154e-06 	0
