0 	0.326102 	0.556899 	-1.15362e-05 	0
0.000571357 	0 	17.5277 	-0.00345415 	0
0.00114271 	4.01152e-15 	19.8172 	-0.00607662 	0
0.00228543 	0 	21.676 	-0.0107963 	0
0.00285678 	0 	22.2342 	-0.0156857 	0
0.00342814 	0 	22.6941 	-0.022551 	0
0.0039995 	0 	23.0967 	-0.0309865 	0
0.00457085 	2.50875e-15 	23.4679 	-0.0404336 	0
0.00571357 	4.76902e-15 	24.1819 	-0.0601388 	0
0.00685628 	0 	24.9206 	-0.0783635 	0
0.00742764 	0 	25.31 	-0.086441 	0
0.00799899 	3.13333e-15 	25.7144 	-0.0937721 	0
0.00914171 	0 	26.5682 	-0.106261 	0
0.00971307 	0 	27.017 	-0.111446 	0
0.0102844 	0 	27.4801 	-0.115944 	0
0.0108558 	0 	27.9623 	-0.119736 	0
0.0114271 	0 	28.4957 	-0.122818 	0
0.0119985 	0 	29.1118 	-0.125233 	0
0.0125698 	0 	29.7847 	-0.126568 	0
0.0131412 	0 	30.6769 	-0.123697 	0
0.0137126 	0 	31.4352 	-0.122309 	0
0.0142839 	0 	32.0002 	-0.121789 	0
0.0148553 	0 	32.5796 	-0.120717 	0
0.0154266 	0 	33.1913 	-0.118874 	0
0.015998 	0 	33.8505 	-0.115999 	0
0.0165693 	0 	34.5767 	-0.111798 	0
0.0171407 	0 	35.4018 	-0.105305 	0
0.0177121 	0 	36.2043 	-0.0982391 	0
0.0182834 	0 	36.6861 	-0.0966107 	0
0.0188548 	0 	36.984 	-0.097305 	0
0.0194261 	0 	37.2569 	-0.0978318 	0
0.0199975 	0 	37.5241 	-0.0981129 	0
0.0205688 	0 	37.7869 	-0.0982084 	0
0.0211402 	0 	38.0438 	-0.0981491 	0
0.0217116 	0 	38.2891 	-0.0979242 	0
0.0222829 	0 	38.5153 	-0.0975414 	0
0.0228543 	0 	38.7199 	-0.0970246 	0
0.0234256 	0 	38.9037 	-0.0963923 	0
0.023997 	0 	39.0509 	-0.0955849 	0
0.0245683 	0 	39.1734 	-0.094669 	0
0.0251397 	0 	39.2791 	-0.0936795 	0
0.0257111 	0 	39.3567 	-0.0925594 	0
0.0262824 	0 	39.4306 	-0.0914181 	0
0.0268538 	0 	39.494 	-0.0902053 	0
0.0274251 	0 	39.5568 	-0.0889785 	0
0.0279965 	0 	39.6174 	-0.0877041 	0
0.0285678 	0 	39.6764 	-0.086418 	0
0.0291392 	0 	39.7262 	-0.0850623 	0
0.0297106 	0 	39.7759 	-0.0837066 	0
0.0302819 	0 	39.8007 	-0.0822456 	0
0.0308533 	0 	39.8226 	-0.080772 	0
0.0314246 	0 	39.8307 	-0.0792493 	0
0.031996 	0 	39.8227 	-0.077669 	0
0.0325673 	0 	39.8147 	-0.0760887 	0
0.0331387 	0 	39.8007 	-0.0744719 	0
0.0337101 	0 	39.7855 	-0.0728478 	0
0.0342814 	0 	39.7703 	-0.0712238 	0
0.0348528 	0 	39.7674 	-0.0695926 	0
0.0354241 	0 	39.7645 	-0.0679615 	0
0.0359955 	0 	39.7616 	-0.0663304 	0
0.0365668 	0 	39.7609 	-0.0646666 	0
0.0371382 	0 	39.7603 	-0.0630004 	0
0.0377095 	5.8251e-15 	39.7597 	-0.0613341 	0
0.0382809 	-5.64599e-15 	39.7566 	-0.0596462 	0
0.0388523 	0 	39.752 	-0.0579448 	0
0.0394236 	0 	39.7474 	-0.0562433 	0
0.039995 	0 	39.7431 	-0.0545418 	0
0.0405663 	0 	39.7461 	-0.0528369 	0
0.0411377 	0 	39.7491 	-0.051132 	0
0.041709 	0 	39.7522 	-0.0494271 	0
0.0422804 	0 	39.7567 	-0.04772 	0
0.0428518 	0 	39.7685 	-0.0460019 	0
0.0434231 	0 	39.7803 	-0.0442838 	0
0.0439945 	0 	39.7921 	-0.0425657 	0
0.0445658 	0 	39.8039 	-0.0408476 	0
0.0451372 	0 	39.8153 	-0.0391205 	0
0.0457085 	0 	39.8267 	-0.0373934 	0
0.0462799 	0 	39.8381 	-0.0356662 	0
0.0468513 	0 	39.8495 	-0.033939 	0
0.0474226 	-5.989e-15 	39.8583 	-0.0322015 	0
0.0502794 	-1.20505e-14 	39.8881 	-0.0234602 	0
0.0531362 	0 	39.9124 	-0.0147385 	0
0.0537075 	0 	39.9183 	-0.0129883 	0
0.0542789 	0 	39.9242 	-0.0112381 	0
0.0548503 	0 	39.9301 	-0.00948792 	0
0.0554216 	6.33097e-15 	39.936 	-0.00773773 	0
0.055993 	-1.20765e-14 	39.942 	-0.00598755 	0
0.057707 	0 	39.9581 	-0.000783532 	0
0.0582784 	0 	39.9634 	0.000949083 	0
0.0588497 	0 	39.9687 	0.0026817 	0
0.0594211 	0 	39.974 	0.00441431 	0
0.0599925 	0 	39.9787 	0.0061284 	0
0.0605638 	0 	39.9829 	0.00782409 	0
0.0611352 	0 	39.9871 	0.00951977 	0
0.0617065 	0 	39.9913 	0.0112155 	0
0.0622779 	0 	39.9955 	0.0129111 	0
0.0628492 	0 	39.9997 	0.0146068 	0
0.0634206 	0 	40.0039 	0.0163025 	0
0.063992 	0 	40.0075 	0.017975 	0
0.0645633 	0 	40.0111 	0.0196437 	0
0.0651347 	6.15483e-15 	40.0147 	0.0213124 	0
0.065706 	-5.91003e-15 	40.0182 	0.022981 	0
0.0662774 	0 	40.0218 	0.0246497 	0
0.0668487 	0 	40.0254 	0.0263184 	0
0.0674201 	0 	40.029 	0.0279887 	0
0.0679915 	0 	40.0327 	0.0296643 	0
0.0685628 	0 	40.0365 	0.0313399 	0
0.0691342 	0 	40.0402 	0.0330156 	0
0.0697055 	6.04514e-15 	40.0439 	0.0346912 	0
0.0702769 	-5.80951e-15 	40.0477 	0.0363668 	0
0.0708482 	0 	40.0515 	0.0380403 	0
0.0714196 	0 	40.0561 	0.039687 	0
0.071991 	0 	40.0607 	0.0413337 	0
0.0725623 	0 	40.0653 	0.0429803 	0
0.0731337 	0 	40.0699 	0.044627 	0
0.073705 	0 	40.0745 	0.0462737 	0
0.0742764 	0 	40.0797 	0.0479101 	0
0.0748477 	0 	40.0858 	0.04953 	0
0.0754191 	0 	40.0919 	0.05115 	0
0.0759905 	5.77409e-15 	40.0981 	0.05277 	0
0.0765618 	-5.5598e-15 	40.1042 	0.05439 	0
0.0771332 	0 	40.1104 	0.0560065 	0
0.0777045 	5.62102e-15 	40.1172 	0.0575971 	0
0.0782759 	0 	40.1241 	0.0591877 	0
0.0788472 	-5.42015e-15 	40.131 	0.0607783 	0
0.0794186 	5.62102e-15 	40.1378 	0.0623689 	0
0.0799899 	-5.27269e-15 	40.1446 	0.0639509 	0
0.0805613 	0 	40.1512 	0.0655059 	0
0.0811327 	0 	40.1577 	0.067061 	0
0.081704 	0 	40.1643 	0.068616 	0
0.0822754 	0 	40.1709 	0.070171 	0
0.0828467 	0 	40.1774 	0.0717058 	0
0.0834181 	0 	40.1838 	0.073233 	0
0.0839894 	0 	40.1903 	0.0747602 	0
0.0845608 	0 	40.1967 	0.0762874 	0
0.0851322 	5.12061e-15 	40.2032 	0.0777893 	0
0.0857035 	-9.91538e-15 	40.2097 	0.0792706 	0
0.0874176 	0 	40.2293 	0.083696 	0
0.0879889 	0 	40.236 	0.0851501 	0
0.0885603 	0 	40.2428 	0.0866041 	0
0.0891317 	0 	40.2495 	0.088058 	0
0.089703 	0 	40.2558 	0.0895103 	0
0.0902744 	0 	40.2622 	0.0909625 	0
0.0908457 	0 	40.2685 	0.0924148 	0
0.0914171 	0 	40.2674 	0.0937821 	0
0.0919884 	0 	40.2644 	0.0951274 	0
0.0925598 	0 	40.2614 	0.0964728 	0
0.0931312 	0 	40.2273 	0.0978773 	0
0.0937025 	0 	40.1817 	0.0993038 	0
0.0942739 	0 	40.136 	0.10073 	0
0.0948452 	0 	39.9828 	0.10229 	0
0.0954166 	0 	39.8164 	0.103866 	0
0.0959879 	0 	39.5771 	0.10684 	0
0.0965593 	0 	39.1331 	0.113741 	0
0.0971307 	0 	38.6892 	0.120642 	0
0.097702 	0 	38.0214 	0.13287 	0
0.0982734 	0 	37.3078 	0.146187 	0
0.0988447 	0 	36.557 	0.158278 	0
0.0994161 	0 	35.7792 	0.169479 	0
0.0999874 	0 	34.9996 	0.178925 	0
0.100559 	0 	34.2183 	0.18658 	0
0.10113 	0 	33.4191 	0.193303 	0
0.101702 	0 	32.6063 	0.199311 	0
0.102273 	0 	31.782 	0.20357 	0
0.102844 	0 	30.9568 	0.206979 	0
0.103416 	0 	30.1483 	0.207938 	0
0.103987 	0 	29.3646 	0.20722 	0
0.104558 	-1.33107e-15 	28.6061 	0.204941 	0
0.10513 	-3.92069e-15 	27.8848 	0.200711 	0
0.105701 	0 	27.1939 	0.194773 	0
0.106272 	0 	26.5236 	0.187512 	0
0.106844 	0 	25.8725 	0.179009 	0
0.107415 	0 	25.2401 	0.169362 	0
0.107986 	0 	24.6257 	0.158648 	0
0.108558 	0 	24.0275 	0.146967 	0
0.109129 	-2.9345e-15 	23.4433 	0.134396 	0
0.110272 	0 	22.3016 	0.106846 	0
0.110843 	-2.0312e-15 	21.7294 	0.0920711 	0
0.111415 	-1.57224e-14 	21.1388 	0.0767059 	0
0.111986 	-1.28629e-15 	20.5062 	0.060867 	0
0.112557 	0 	19.7817 	0.0446783 	0
0.113129 	0 	18.8353 	0.0283918 	0
0.1137 	0 	17.153 	0.0126597 	0
