0 	0.302579 	1.52458 	-2.65031e-05 	0
0.000571357 	0 	18.5543 	-0.00376951 	0
0.00114271 	0 	20.83 	-0.00889569 	0
0.00171407 	0 	21.9737 	-0.0148413 	0
0.00228543 	0 	22.7483 	-0.0212286 	0
0.00285678 	0 	23.3584 	-0.0278192 	0
0.00342814 	0 	23.8785 	-0.0344707 	0
0.0039995 	0 	24.3477 	-0.0410835 	0
0.00457085 	0 	24.7861 	-0.0475858 	0
0.00514221 	0 	25.2061 	-0.0539169 	0
0.00571357 	0 	25.616 	-0.0600296 	0
0.00628492 	0 	26.0216 	-0.065884 	0
0.00685628 	0 	26.4266 	-0.0714438 	0
0.00742764 	0 	26.8341 	-0.0766776 	0
0.00799899 	0 	27.2466 	-0.0815254 	0
0.00857035 	0 	27.6651 	-0.0860094 	0
0.00914171 	0 	28.092 	-0.0900424 	0
0.00971307 	0 	28.5269 	-0.0936699 	0
0.0102844 	0 	28.9721 	-0.0968163 	0
0.0108558 	0 	29.4279 	-0.0994782 	0
0.0114271 	0 	29.8947 	-0.101679 	0
0.0119985 	0 	30.3739 	-0.103404 	0
0.0125698 	0 	30.7811 	-0.104458 	0
0.0131412 	-4.22983e-15 	31.4182 	-0.105177 	0
0.0137126 	0 	32.0419 	-0.104938 	0
0.0142839 	0 	32.6711 	-0.103851 	0
0.0148553 	0 	33.2901 	-0.102099 	0
0.0154266 	1.3688e-15 	33.8907 	-0.0999531 	0
0.015998 	0 	34.4685 	-0.0975641 	0
0.0165693 	0 	35.0347 	-0.0948406 	0
0.0171407 	0 	35.6069 	-0.0915427 	0
0.0177121 	0 	36.1987 	-0.0874513 	0
0.0182834 	0 	36.8159 	-0.0822867 	0
0.0188548 	0 	37.4741 	-0.0749579 	0
0.0194261 	0 	38.1232 	-0.0669257 	0
0.0199975 	0 	38.7578 	-0.0588708 	0
0.0205688 	0 	39.1934 	-0.0552329 	0
0.0211402 	0 	39.6013 	-0.0521169 	0
0.0217116 	0 	39.8306 	-0.0523691 	0
0.0222829 	0 	40.0599 	-0.0526212 	0
0.0228543 	0 	40.2247 	-0.0532046 	0
0.0234256 	0 	40.3851 	-0.053811 	0
0.023997 	1.25904e-15 	40.5272 	-0.0543794 	0
0.0285678 	0 	41.0418 	-0.0576576 	0
0.0291392 	0 	41.0509 	-0.0579606 	0
0.0297106 	0 	41.0476 	-0.0582444 	0
0.0302819 	0 	41.0263 	-0.0585008 	0
0.0308533 	0 	41.005 	-0.0587572 	0
0.0314246 	0 	40.9837 	-0.0590136 	0
0.031996 	0 	40.9627 	-0.0592694 	0
0.0325673 	0 	40.947 	-0.0595153 	0
0.0331387 	0 	40.9314 	-0.0597612 	0
0.0337101 	0 	40.9157 	-0.0600071 	0
0.0342814 	0 	40.9 	-0.0602529 	0
0.0348528 	-1.01487e-15 	40.8855 	-0.0605003 	0
0.0354241 	0 	40.8892 	-0.0607699 	0
0.0359955 	0 	40.8929 	-0.0610395 	0
0.0365668 	0 	40.8966 	-0.0613092 	0
0.0371382 	0 	40.9002 	-0.0615788 	0
0.0377095 	1.00095e-15 	40.9039 	-0.0618484 	0
0.0382809 	9.32183e-16 	40.9072 	-0.0621043 	0
0.0422804 	8.57079e-16 	40.9215 	-0.0636941 	0
0.0428518 	-8.57714e-16 	40.9195 	-0.0639075 	0
0.0434231 	8.57079e-16 	40.9176 	-0.0641209 	0
0.0439945 	0 	40.9156 	-0.0643343 	0
0.0445658 	0 	40.9137 	-0.0645477 	0
0.0451372 	0 	40.9117 	-0.0647612 	0
0.0457085 	8.57079e-16 	40.9098 	-0.0649746 	0
0.0468513 	7.78134e-16 	40.9089 	-0.0653762 	0
0.0571357 	0 	40.9161 	-0.0685701 	0
0.057707 	0 	40.9168 	-0.0687177 	0
0.0582784 	0 	40.9174 	-0.0688652 	0
0.0588497 	0 	40.9181 	-0.0690128 	0
0.0594211 	-5.92011e-16 	40.9187 	-0.0691604 	0
0.0599925 	0 	40.9194 	-0.0693079 	0
0.0605638 	0 	40.9201 	-0.0694555 	0
0.0611352 	0 	40.9207 	-0.0696031 	0
0.0617065 	0 	40.9214 	-0.0697506 	0
0.0622779 	6.06704e-16 	40.922 	-0.0698982 	0
0.0628492 	0 	40.9227 	-0.0700458 	0
0.0634206 	-5.00196e-16 	40.9235 	-0.0701827 	0
0.063992 	0 	40.9245 	-0.0703027 	0
0.0645633 	0 	40.9255 	-0.0704227 	0
0.0651347 	1.04044e-15 	40.9265 	-0.0705427 	0
0.0754191 	3.90786e-16 	40.9487 	-0.0726636 	0
0.0759905 	-3.91911e-16 	40.9505 	-0.0727623 	0
0.0765618 	0 	40.9524 	-0.0728609 	0
0.0771332 	3.90786e-16 	40.9543 	-0.0729595 	0
0.0777045 	0 	40.9562 	-0.0730581 	0
0.0782759 	0 	40.9581 	-0.0731567 	0
0.0788472 	0 	40.9599 	-0.0732553 	0
0.0794186 	0 	40.9618 	-0.0733539 	0
0.0799899 	0 	40.9637 	-0.0734525 	0
0.0805613 	-3.70301e-16 	40.9659 	-0.0735513 	0
0.0811327 	0 	40.9683 	-0.0736502 	0
0.081704 	3.53556e-16 	40.9708 	-0.0737491 	0
0.0822754 	0 	40.9732 	-0.073848 	0
0.0828467 	-3.70301e-16 	40.9757 	-0.0739468 	0
0.0834181 	3.53556e-16 	40.9781 	-0.0740457 	0
0.0839894 	0 	40.9806 	-0.0741446 	0
0.0845608 	0 	40.983 	-0.0742435 	0
0.0851322 	0 	40.9862 	-0.0743359 	0
0.0857035 	-3.61241e-16 	40.9893 	-0.0744283 	0
0.0862749 	3.33796e-16 	40.9925 	-0.0745207 	0
0.0868462 	-3.61241e-16 	40.9956 	-0.0746131 	0
0.0874176 	6.67591e-16 	40.9988 	-0.0747055 	0
0.0919884 	-3.63762e-16 	41.0308 	-0.0754173 	0
0.0925598 	3.36924e-16 	41.036 	-0.075497 	0
0.0931312 	0 	41.0413 	-0.0755767 	0
0.0937025 	0 	41.0465 	-0.0756564 	0
0.0942739 	0 	41.0518 	-0.0757361 	0
0.0948452 	0 	41.0581 	-0.0757973 	0
0.0954166 	0 	41.0648 	-0.0758513 	0
0.0959879 	0 	41.0715 	-0.0759052 	0
0.0965593 	0 	41.0782 	-0.0759592 	0
0.0971307 	0 	41.0856 	-0.0759935 	0
0.097702 	0 	41.0942 	-0.0759934 	0
0.0982734 	0 	41.1028 	-0.0759932 	0
0.0988447 	-2.94174e-16 	41.1113 	-0.075993 	0
0.0994161 	4.00617e-16 	41.1212 	-0.0759677 	0
0.0999874 	0 	41.1321 	-0.0759229 	0
0.100559 	0 	41.143 	-0.0758781 	0
0.10113 	4.13742e-16 	41.1544 	-0.0758125 	0
0.102844 	4.10053e-16 	41.1794 	-0.075335 	0
0.104558 	0 	40.9149 	-0.0718291 	0
0.10513 	4.09616e-16 	40.6634 	-0.0686451 	0
0.105701 	0 	40.1985 	-0.062741 	0
0.106272 	0 	39.6135 	-0.0553037 	0
0.106844 	0 	38.8961 	-0.0474421 	0
0.107415 	0 	38.1244 	-0.0394787 	0
0.107986 	0 	37.2882 	-0.0327421 	0
0.108558 	0 	36.4327 	-0.0265485 	0
0.109129 	0 	35.5571 	-0.0210734 	0
0.109701 	0 	34.661 	-0.0165045 	0
0.110272 	1.55803e-15 	33.7271 	-0.0127413 	0
0.110843 	0 	32.7181 	-0.00961328 	0
0.111415 	1.42321e-16 	31.5815 	-0.00696734 	0
0.111986 	1.68367e-15 	30.1841 	-0.00476491 	0
0.112557 	1.10962e-16 	28.2723 	-0.00289718 	0
0.113129 	0 	24.9559 	-0.00128925 	0
0.1137 	-0.0566475 	1.39501 	-1.71211e-06 	0
