0 	0.291381 	1.51664 	-2.57231e-05 	0
0.000571357 	0 	18.4987 	-0.00367222 	0
0.00114271 	0 	20.7713 	-0.00859526 	0
0.00171407 	0 	21.9144 	-0.0143052 	0
0.00228543 	0 	22.6897 	-0.0204572 	0
0.00285678 	0 	23.3013 	-0.0268285 	0
0.00342814 	0 	23.8233 	-0.0332862 	0
0.0039995 	0 	24.2948 	-0.0397354 	0
0.00457085 	0 	24.7356 	-0.0461081 	0
0.00514221 	0 	25.1582 	-0.052347 	0
0.00571357 	0 	25.571 	-0.0584061 	0
0.00628492 	0 	25.9797 	-0.0642464 	0
0.00685628 	0 	26.3883 	-0.0698316 	0
0.00742764 	0 	26.7995 	-0.0751293 	0
0.00799899 	0 	27.2162 	-0.0800798 	0
0.00857035 	0 	27.6392 	-0.084697 	0
0.00914171 	0 	28.0709 	-0.0888923 	0
0.00971307 	0 	28.511 	-0.0926996 	0
0.0102844 	0 	28.9613 	-0.0960352 	0
0.0108558 	0 	29.422 	-0.098884 	0
0.0114271 	0 	29.8929 	-0.101262 	0
0.0119985 	0 	30.3749 	-0.103133 	0
0.0125698 	0 	30.7826 	-0.104239 	0
0.0131412 	-4.14057e-15 	31.401 	-0.104735 	0
0.0137126 	0 	32.001 	-0.104017 	0
0.0142839 	0 	32.6254 	-0.10241 	0
0.0148553 	0 	33.2486 	-0.100209 	0
0.0154266 	1.40393e-15 	33.8567 	-0.0977235 	0
0.015998 	0 	34.4414 	-0.0951121 	0
0.0165693 	0 	35.011 	-0.092243 	0
0.0171407 	0 	35.5839 	-0.0888388 	0
0.0177121 	0 	36.1757 	-0.0846553 	0
0.0182834 	0 	36.7927 	-0.0794144 	0
0.0188548 	0 	37.4506 	-0.0720511 	0
0.0194261 	0 	38.1026 	-0.063927 	0
0.0199975 	0 	38.7415 	-0.0557571 	0
0.0205688 	0 	39.1832 	-0.051978 	0
0.0211402 	0 	39.5968 	-0.0487337 	0
0.0217116 	0 	39.8285 	-0.0489389 	0
0.0222829 	0 	40.0603 	-0.0491441 	0
0.0228543 	0 	40.2259 	-0.0497163 	0
0.0234256 	0 	40.3869 	-0.050314 	0
0.023997 	1.32356e-15 	40.5296 	-0.0508776 	0
0.0285678 	0 	41.0483 	-0.0542239 	0
0.0291392 	0 	41.0579 	-0.0545437 	0
0.0297106 	0 	41.0548 	-0.0548466 	0
0.0302819 	0 	41.0336 	-0.0551249 	0
0.0308533 	0 	41.0124 	-0.0554032 	0
0.0314246 	0 	40.9912 	-0.0556815 	0
0.031996 	0 	40.9703 	-0.0559592 	0
0.0325673 	0 	40.9546 	-0.0562274 	0
0.0331387 	0 	40.9388 	-0.0564955 	0
0.0337101 	0 	40.9231 	-0.0567637 	0
0.0342814 	0 	40.9073 	-0.0570318 	0
0.0348528 	-1.0932e-15 	40.8927 	-0.0573013 	0
0.0354241 	0 	40.8964 	-0.0575925 	0
0.0359955 	0 	40.9 	-0.0578836 	0
0.0365668 	0 	40.9036 	-0.0581747 	0
0.0371382 	0 	40.9073 	-0.0584658 	0
0.0377095 	1.07227e-15 	40.9109 	-0.058757 	0
0.0382809 	1.00444e-15 	40.9141 	-0.0590346 	0
0.0422804 	9.30323e-16 	40.9285 	-0.0607807 	0
0.0428518 	-9.38316e-16 	40.9266 	-0.0610168 	0
0.0434231 	9.30323e-16 	40.9246 	-0.0612529 	0
0.0439945 	0 	40.9227 	-0.061489 	0
0.0445658 	0 	40.9208 	-0.0617251 	0
0.0451372 	0 	40.9188 	-0.0619613 	0
0.0457085 	9.30323e-16 	40.9169 	-0.0621974 	0
0.0468513 	8.52337e-16 	40.916 	-0.0626442 	0
0.0571357 	0 	40.9232 	-0.0662433 	0
0.057707 	0 	40.9239 	-0.0664128 	0
0.0582784 	0 	40.9245 	-0.0665822 	0
0.0588497 	0 	40.9252 	-0.0667517 	0
0.0594211 	-6.74863e-16 	40.9259 	-0.0669212 	0
0.0599925 	0 	40.9265 	-0.0670907 	0
0.0605638 	0 	40.9272 	-0.0672601 	0
0.0611352 	0 	40.9278 	-0.0674296 	0
0.0617065 	0 	40.9285 	-0.0675991 	0
0.0622779 	6.82355e-16 	40.9292 	-0.0677685 	0
0.0628492 	0 	40.9298 	-0.067938 	0
0.0634206 	-5.83316e-16 	40.9306 	-0.0680968 	0
0.063992 	0 	40.9316 	-0.0682386 	0
0.0645633 	0 	40.9326 	-0.0683803 	0
0.0651347 	1.19247e-15 	40.9336 	-0.0685221 	0
0.0754191 	4.66887e-16 	40.9558 	-0.0710394 	0
0.0759905 	-4.7506e-16 	40.9577 	-0.0711601 	0
0.0765618 	0 	40.9596 	-0.0712809 	0
0.0771332 	4.66887e-16 	40.9615 	-0.0714016 	0
0.0777045 	0 	40.9633 	-0.0715223 	0
0.0782759 	0 	40.9652 	-0.071643 	0
0.0788472 	0 	40.9671 	-0.0717638 	0
0.0794186 	0 	40.969 	-0.0718845 	0
0.0799899 	0 	40.9709 	-0.0720052 	0
0.0805613 	-4.53358e-16 	40.973 	-0.072126 	0
0.0811327 	0 	40.9755 	-0.0722469 	0
0.081704 	4.29557e-16 	40.9779 	-0.0723678 	0
0.0822754 	0 	40.9804 	-0.0724888 	0
0.0828467 	-4.53358e-16 	40.9828 	-0.0726097 	0
0.0834181 	4.29557e-16 	40.9853 	-0.0727306 	0
0.0839894 	0 	40.9877 	-0.0728515 	0
0.0845608 	0 	40.9902 	-0.0729724 	0
0.0851322 	0 	40.9933 	-0.0730868 	0
0.0857035 	-4.44199e-16 	40.9965 	-0.0732011 	0
0.0862749 	4.0967e-16 	40.9996 	-0.0733155 	0
0.0868462 	-4.44199e-16 	41.0028 	-0.0734299 	0
0.0874176 	8.1934e-16 	41.006 	-0.0735442 	0
0.0919884 	-4.46748e-16 	41.038 	-0.0744316 	0
0.0925598 	4.12539e-16 	41.0432 	-0.0745333 	0
0.0931312 	0 	41.0484 	-0.0746351 	0
0.0937025 	0 	41.0537 	-0.0747368 	0
0.0942739 	0 	41.0589 	-0.0748385 	0
0.0948452 	0 	41.0652 	-0.0749218 	0
0.0954166 	0 	41.0719 	-0.0749979 	0
0.0959879 	0 	41.0787 	-0.075074 	0
0.0965593 	0 	41.0854 	-0.0751502 	0
0.0971307 	0 	41.0928 	-0.0752067 	0
0.097702 	0 	41.1013 	-0.0752291 	0
0.0982734 	0 	41.1099 	-0.0752514 	0
0.0988447 	-3.77978e-16 	41.1185 	-0.0752737 	0
0.0994161 	4.76122e-16 	41.1284 	-0.0752711 	0
0.0999874 	0 	41.1392 	-0.0752491 	0
0.100559 	0 	41.1501 	-0.0752271 	0
0.10113 	4.89381e-16 	41.1615 	-0.0751841 	0
0.102844 	4.86031e-16 	41.1867 	-0.0747764 	0
0.104558 	0 	40.9234 	-0.0713628 	0
0.10513 	4.85767e-16 	40.6726 	-0.0682175 	0
0.105701 	0 	40.2085 	-0.0623511 	0
0.106272 	0 	39.624 	-0.054951 	0
0.106844 	0 	38.907 	-0.0471213 	0
0.107415 	0 	38.1354 	-0.0391877 	0
0.107986 	0 	37.2993 	-0.0324812 	0
0.108558 	0 	36.4439 	-0.0263172 	0
0.109129 	0 	35.5684 	-0.0208712 	0
0.109701 	0 	34.6723 	-0.0163308 	0
0.110272 	1.46111e-15 	33.7384 	-0.0125952 	0
0.110843 	0 	32.7295 	-0.00949419 	0
0.111415 	2.20978e-16 	31.5929 	-0.00687473 	0
0.111986 	1.58516e-15 	30.1955 	-0.00469797 	0
0.112557 	1.90007e-16 	28.2834 	-0.00285489 	0
0.113129 	0 	24.9663 	-0.00127015 	0
0.1137 	-0.0534449 	1.39596 	-1.68653e-06 	0
