0 	-0.137361 	0.319589 	1.67845e-05 	0
0.000571357 	0 	7.93189 	0.0056195 	0
0.00114271 	0 	10.3776 	0.00326844 	0
0.00171407 	0 	11.7239 	-0.00302992 	0
0.00228543 	0 	12.5767 	-0.00944616 	0
0.00285678 	0 	13.2182 	-0.0142763 	0
0.00342814 	0 	13.7833 	-0.0170113 	0
0.0039995 	0 	14.3513 	-0.017705 	0
0.00457085 	0 	15.0156 	-0.0168621 	0
0.00514221 	0 	15.818 	-0.0149477 	0
0.00571357 	0 	16.6846 	-0.0121449 	0
0.00628492 	0 	17.5394 	-0.008565 	0
0.00685628 	0 	18.4318 	-0.00338424 	0
0.00742764 	0 	19.346 	0.00249892 	0
0.00799899 	0 	20.2256 	0.00748753 	0
0.00857035 	0 	21.0839 	0.0120741 	0
0.00914171 	0 	21.932 	0.0168383 	0
0.00971307 	0 	22.7655 	0.0219102 	0
0.0102844 	0 	23.5457 	0.0276971 	0
0.0108558 	0 	24.1487 	0.0347443 	0
0.0114271 	0 	24.3592 	0.0418721 	0
0.0119985 	0 	24.0605 	0.0459876 	0
0.0125698 	0 	23.4003 	0.0507428 	0
0.0131412 	5.64631e-15 	23.1035 	0.0610479 	0
0.0137126 	0 	24.3176 	0.0666172 	0
0.0142839 	0 	25.5075 	0.0722846 	0
0.0148553 	0 	26.6322 	0.0785132 	0
0.0154266 	-7.50716e-16 	27.7131 	0.0854832 	0
0.015998 	0 	28.7829 	0.0933346 	0
0.0165693 	0 	29.9019 	0.103026 	0
0.0171407 	0 	31.0244 	0.113055 	0
0.0177121 	0 	31.9949 	0.120085 	0
0.0182834 	0 	32.7704 	0.123536 	0
0.0188548 	0 	33.3593 	0.123812 	0
0.0194261 	0 	33.8952 	0.123021 	0
0.0199975 	0 	34.4092 	0.121803 	0
0.0205688 	0 	34.8922 	0.120178 	0
0.0211402 	0 	35.371 	0.118485 	0
0.0217116 	0 	35.8225 	0.116354 	0
0.0222829 	0 	36.274 	0.114223 	0
0.0228543 	0 	36.694 	0.111644 	0
0.0234256 	0 	37.1119 	0.109034 	0
0.023997 	2.60447e-15 	37.5151 	0.106309 	0
0.0285678 	0 	40.2952 	0.0826088 	0
0.0291392 	0 	40.6052 	0.0797203 	0
0.0297106 	0 	40.9007 	0.0769585 	0
0.0302819 	0 	41.1753 	0.0743787 	0
0.0308533 	0 	41.4498 	0.0717989 	0
0.0314246 	0 	41.7244 	0.0692191 	0
0.031996 	0 	41.9971 	0.0666828 	0
0.0325673 	0 	42.2376 	0.0649006 	0
0.0331387 	0 	42.478 	0.0631183 	0
0.0337101 	0 	42.7185 	0.0613361 	0
0.0342814 	0 	42.959 	0.0595539 	0
0.0348528 	-9.35491e-15 	43.1975 	0.057825 	0
0.0354241 	0 	43.4056 	0.0569214 	0
0.0359955 	0 	43.6138 	0.0560179 	0
0.0365668 	0 	43.8219 	0.0551143 	0
0.0371382 	0 	44.0301 	0.0542107 	0
0.0377095 	6.03672e-15 	44.2382 	0.0533071 	0
0.0382809 	6.61278e-15 	44.4361 	0.0528652 	0
0.0422804 	6.94488e-15 	45.6558 	0.0571703 	0
0.0428518 	-1.10505e-14 	45.8035 	0.0589342 	0
0.0434231 	6.94488e-15 	45.9512 	0.0606981 	0
0.0439945 	0 	46.0989 	0.062462 	0
0.0445658 	0 	46.2466 	0.0642259 	0
0.0451372 	0 	46.3943 	0.0659898 	0
0.0457085 	6.94488e-15 	46.542 	0.0677537 	0
0.0468513 	6.96552e-15 	46.799 	0.0732229 	0
0.0571357 	0 	48.4602 	0.145751 	0
0.057707 	0 	48.484 	0.150827 	0
0.0582784 	0 	48.5078 	0.155904 	0
0.0588497 	0 	48.5316 	0.16098 	0
0.0594211 	-1.01574e-14 	48.5554 	0.166057 	0
0.0599925 	0 	48.5792 	0.171133 	0
0.0605638 	0 	48.603 	0.17621 	0
0.0611352 	0 	48.6268 	0.181286 	0
0.0617065 	0 	48.6506 	0.186363 	0
0.0622779 	6.59354e-15 	48.6744 	0.191439 	0
0.0628492 	0 	48.6982 	0.196516 	0
0.0634206 	-1.08806e-14 	48.6955 	0.201547 	0
0.063992 	0 	48.6507 	0.206505 	0
0.0645633 	0 	48.6059 	0.211463 	0
0.0651347 	1.36419e-14 	48.561 	0.216421 	0
0.0754191 	8.66168e-15 	47.145 	0.290427 	0
0.0759905 	-1.3831e-14 	47.004 	0.292017 	0
0.0765618 	0 	46.863 	0.293608 	0
0.0771332 	8.66168e-15 	46.722 	0.295198 	0
0.0777045 	0 	46.5811 	0.296788 	0
0.0782759 	0 	46.4401 	0.298379 	0
0.0788472 	0 	46.2991 	0.299969 	0
0.0794186 	0 	46.1582 	0.30156 	0
0.0799899 	0 	46.0172 	0.30315 	0
0.0805613 	-1.42809e-14 	45.8593 	0.303694 	0
0.0811327 	0 	45.6864 	0.3033 	0
0.081704 	9.42534e-15 	45.5134 	0.302906 	0
0.0822754 	0 	45.3405 	0.302512 	0
0.0828467 	-1.42809e-14 	45.1675 	0.302118 	0
0.0834181 	9.42534e-15 	44.9946 	0.301725 	0
0.0839894 	0 	44.8216 	0.301331 	0
0.0845608 	0 	44.6486 	0.300933 	0
0.0851322 	0 	44.4422 	0.298786 	0
0.0857035 	-1.35855e-14 	44.2357 	0.296639 	0
0.0862749 	9.67812e-15 	44.0293 	0.294492 	0
0.0868462 	-1.35855e-14 	43.8229 	0.292345 	0
0.0874176 	1.93562e-14 	43.6165 	0.290197 	0
0.0919884 	-1.01038e-14 	41.6895 	0.261999 	0
0.0925598 	8.82432e-15 	41.4011 	0.257065 	0
0.0931312 	0 	41.1128 	0.252131 	0
0.0937025 	0 	40.8244 	0.247197 	0
0.0942739 	0 	40.536 	0.242262 	0
0.0948452 	0 	40.2109 	0.236621 	0
0.0954166 	0 	39.8715 	0.230704 	0
0.0959879 	0 	39.5321 	0.224787 	0
0.0965593 	0 	39.1927 	0.21887 	0
0.0971307 	0 	38.8319 	0.212693 	0
0.097702 	0 	38.4338 	0.206062 	0
0.0982734 	0 	38.0358 	0.19943 	0
0.0988447 	-6.93685e-15 	37.6377 	0.192799 	0
0.0994161 	7.01487e-15 	37.2021 	0.185826 	0
0.0999874 	0 	36.7376 	0.17859 	0
0.100559 	0 	36.2731 	0.171354 	0
0.10113 	6.74545e-15 	35.79 	0.163986 	0
0.102844 	6.63143e-15 	34.1443 	0.140489 	0
0.104558 	0 	32.1985 	0.114781 	0
0.10513 	6.65228e-15 	31.4785 	0.105644 	0
0.105701 	0 	30.6267 	0.0971963 	0
0.106272 	0 	29.7006 	0.0891375 	0
0.106844 	0 	28.5489 	0.0834516 	0
0.107415 	0 	27.3049 	0.0787259 	0
0.107986 	0 	25.9612 	0.0748548 	0
0.108558 	0 	24.6643 	0.0691191 	0
0.109129 	0 	23.4072 	0.061309 	0
0.109701 	0 	22.1734 	0.0517732 	0
0.110272 	-7.16829e-15 	20.9832 	0.0418871 	0
0.110843 	0 	19.8422 	0.0314913 	0
0.111415 	7.06001e-15 	18.7138 	0.0213185 	0
0.111986 	-7.38093e-15 	17.4979 	0.012509 	0
0.112557 	7.07753e-15 	15.9969 	0.00601895 	0
0.113129 	0 	13.6442 	0.00211977 	0
0.1137 	0.23625 	0.526573 	1.96772e-05 	0
