0 	0.244137 	2.95348 	2.49524e-05 	0
0.000571357 	0 	23.8517 	0.0309829 	0
0.00114271 	0 	25.2237 	0.0820043 	0
0.00171407 	0 	26.1615 	0.134798 	0
0.00228543 	0 	27.0336 	0.186269 	0
0.00285678 	0 	27.8633 	0.234125 	0
0.00342814 	0 	28.6316 	0.276065 	0
0.0039995 	0 	29.3235 	0.310406 	0
0.00457085 	0 	29.933 	0.335922 	0
0.00514221 	0 	30.4643 	0.351963 	0
0.00571357 	0 	30.9343 	0.358925 	0
0.00628492 	0 	31.3715 	0.358317 	0
0.00685628 	0 	31.8177 	0.353403 	0
0.00742764 	0 	32.3313 	0.35081 	0
0.00799899 	0 	33.0025 	0.359047 	0
0.00857035 	0 	33.6797 	0.371344 	0
0.00914171 	0 	34.0761 	0.376861 	0
0.00971307 	0 	34.1765 	0.375543 	0
0.0102844 	0 	33.9836 	0.368921 	0
0.0108558 	0 	33.5914 	0.360945 	0
0.0114271 	0 	33.068 	0.353616 	0
0.0119985 	0 	32.4305 	0.339475 	0
0.0125698 	0 	31.8196 	0.336257 	0
0.0131412 	-5.59177e-14 	31.5952 	0.3596 	0
0.0137126 	0 	32.4424 	0.368882 	0
0.0142839 	0 	33.4419 	0.377523 	0
0.0148553 	0 	34.4574 	0.38591 	0
0.0154266 	5.69327e-14 	35.4456 	0.394051 	0
0.015998 	0 	36.3864 	0.401732 	0
0.0165693 	0 	37.2779 	0.409017 	0
0.0171407 	0 	38.0851 	0.414766 	0
0.0177121 	0 	38.7247 	0.413925 	0
0.0182834 	0 	39.1734 	0.40482 	0
0.0188548 	0 	39.4072 	0.388008 	0
0.0194261 	0 	39.5571 	0.370826 	0
0.0199975 	0 	39.6731 	0.353507 	0
0.0205688 	0 	39.7527 	0.33624 	0
0.0211402 	0 	39.8289 	0.318975 	0
0.0217116 	0 	39.8836 	0.30172 	0
0.0222829 	0 	39.9384 	0.284466 	0
0.0228543 	0 	39.9747 	0.267736 	0
0.0234256 	0 	40.0097 	0.251043 	0
0.023997 	4.14342e-14 	40.0392 	0.234742 	0
0.0285678 	0 	40.1728 	0.11922 	0
0.0291392 	0 	40.1865 	0.106292 	0
0.0297106 	0 	40.2002 	0.0940492 	0
0.0302819 	0 	40.214 	0.0827896 	0
0.0308533 	0 	40.2278 	0.07153 	0
0.0314246 	0 	40.2416 	0.0602703 	0
0.031996 	0 	40.2552 	0.0491026 	0
0.0325673 	0 	40.2663 	0.0395273 	0
0.0331387 	0 	40.2773 	0.0299519 	0
0.0337101 	0 	40.2884 	0.0203766 	0
0.0342814 	0 	40.2994 	0.0108012 	0
0.0348528 	-2.89118e-14 	40.3101 	0.00132316 	0
0.0354241 	0 	40.3149 	-0.00665047 	0
0.0359955 	0 	40.3197 	-0.0146241 	0
0.0365668 	0 	40.3245 	-0.0225977 	0
0.0371382 	0 	40.3293 	-0.0305714 	0
0.0377095 	2.63827e-14 	40.3341 	-0.038545 	0
0.0382809 	2.3137e-14 	40.3371 	-0.0459346 	0
0.0422804 	1.99279e-14 	40.3341 	-0.0882313 	0
0.0428518 	-2.1058e-14 	40.333 	-0.092739 	0
0.0434231 	1.99279e-14 	40.3319 	-0.0972468 	0
0.0439945 	0 	40.3308 	-0.101755 	0
0.0445658 	0 	40.3296 	-0.106262 	0
0.0451372 	0 	40.3285 	-0.11077 	0
0.0457085 	1.99279e-14 	40.3274 	-0.115278 	0
0.0468513 	1.681e-14 	40.3238 	-0.122389 	0
0.0571357 	0 	40.2676 	-0.159667 	0
0.057707 	0 	40.2637 	-0.159905 	0
0.0582784 	0 	40.2598 	-0.160144 	0
0.0588497 	0 	40.2558 	-0.160382 	0
0.0594211 	-1.10098e-14 	40.2519 	-0.160621 	0
0.0599925 	0 	40.248 	-0.160859 	0
0.0605638 	0 	40.244 	-0.161098 	0
0.0611352 	0 	40.2401 	-0.161336 	0
0.0617065 	0 	40.2362 	-0.161574 	0
0.0622779 	1.10783e-14 	40.2323 	-0.161813 	0
0.0628492 	0 	40.2283 	-0.162051 	0
0.0634206 	-8.52772e-15 	40.2244 	-0.161908 	0
0.063992 	0 	40.2203 	-0.161159 	0
0.0645633 	0 	40.2162 	-0.16041 	0
0.0651347 	1.72386e-14 	40.2122 	-0.159661 	0
0.0754191 	5.25291e-15 	40.1447 	-0.138547 	0
0.0759905 	-5.47885e-15 	40.1424 	-0.136537 	0
0.0765618 	0 	40.1401 	-0.134528 	0
0.0771332 	5.25291e-15 	40.1378 	-0.132518 	0
0.0777045 	0 	40.1355 	-0.130509 	0
0.0782759 	0 	40.1332 	-0.128499 	0
0.0788472 	0 	40.1308 	-0.12649 	0
0.0794186 	0 	40.1285 	-0.12448 	0
0.0799899 	0 	40.1262 	-0.122471 	0
0.0805613 	-4.58524e-15 	40.1246 	-0.120273 	0
0.0811327 	0 	40.1235 	-0.117905 	0
0.081704 	4.23587e-15 	40.1225 	-0.115537 	0
0.0822754 	0 	40.1214 	-0.113169 	0
0.0828467 	-4.58524e-15 	40.1204 	-0.110802 	0
0.0834181 	4.23587e-15 	40.1193 	-0.108434 	0
0.0839894 	0 	40.1183 	-0.106066 	0
0.0845608 	0 	40.1172 	-0.103698 	0
0.0851322 	0 	40.1173 	-0.101077 	0
0.0857035 	-3.94749e-15 	40.1175 	-0.0984555 	0
0.0862749 	3.49279e-15 	40.1176 	-0.0958343 	0
0.0868462 	-3.94749e-15 	40.1178 	-0.0932131 	0
0.0874176 	6.98558e-15 	40.1179 	-0.0905919 	0
0.0919884 	-3.23744e-15 	40.1287 	-0.0685031 	0
0.0925598 	2.5507e-15 	40.1316 	-0.065618 	0
0.0931312 	0 	40.1346 	-0.062733 	0
0.0937025 	0 	40.1375 	-0.0598479 	0
0.0942739 	0 	40.1405 	-0.0569628 	0
0.0948452 	0 	40.1447 	-0.0540616 	0
0.0954166 	0 	40.1494 	-0.0511541 	0
0.0959879 	0 	40.1541 	-0.0482466 	0
0.0965593 	0 	40.1588 	-0.0453391 	0
0.0971307 	0 	40.1643 	-0.0424387 	0
0.097702 	0 	40.171 	-0.0395505 	0
0.0982734 	0 	40.1778 	-0.0366624 	0
0.0988447 	-3.12792e-15 	40.1846 	-0.0337743 	0
0.0994161 	1.99515e-15 	40.1929 	-0.0309547 	0
0.0999874 	0 	40.2023 	-0.0281879 	0
0.100559 	0 	40.2117 	-0.0254212 	0
0.10113 	1.97642e-15 	40.2208 	-0.0227157 	0
0.102844 	2.04469e-15 	40.2085 	-0.0148991 	0
0.104558 	0 	39.6693 	-0.0031682 	0
0.10513 	2.15712e-15 	39.2627 	0.00252409 	0
0.105701 	0 	38.6676 	0.00905013 	0
0.106272 	0 	37.9662 	0.0160461 	0
0.106844 	0 	37.1944 	0.0219538 	0
0.107415 	0 	36.3936 	0.0273418 	0
0.107986 	0 	35.5563 	0.0307686 	0
0.108558 	0 	34.718 	0.0330209 	0
0.109129 	0 	33.8805 	0.0338634 	0
0.109701 	0 	33.0438 	0.033127 	0
0.110272 	-7.0957e-15 	32.187 	0.0309572 	0
0.110843 	0 	31.2728 	0.0276201 	0
0.111415 	2.82198e-15 	30.2571 	0.0233466 	0
0.111986 	-7.65862e-15 	29.0179 	0.0181007 	0
0.112557 	2.93507e-15 	27.3008 	0.012114 	0
0.113129 	0 	24.206 	0.00568056 	0
0.1137 	0.260129 	1.33582 	6.75558e-06 	0
