0 	0.29301 	1.51713 	-2.59664e-05 	0
0.000571357 	0 	18.4995 	-0.00374652 	0
0.00114271 	0 	20.7713 	-0.00874097 	0
0.00171407 	0 	21.9141 	-0.0145118 	0
0.00228543 	0 	22.6895 	-0.0207169 	0
0.00285678 	0 	23.3012 	-0.0271353 	0
0.00342814 	0 	23.8234 	-0.0336346 	0
0.0039995 	0 	24.2951 	-0.0401204 	0
0.00457085 	0 	24.7361 	-0.0465244 	0
0.00514221 	0 	25.159 	-0.052789 	0
0.00571357 	0 	25.572 	-0.0588677 	0
0.00628492 	0 	25.9809 	-0.0647211 	0
0.00685628 	0 	26.3895 	-0.0703123 	0
0.00742764 	0 	26.8008 	-0.0756084 	0
0.00799899 	0 	27.2174 	-0.0805488 	0
0.00857035 	0 	27.6403 	-0.0851485 	0
0.00914171 	0 	28.0718 	-0.0893182 	0
0.00971307 	0 	28.5114 	-0.0930938 	0
0.0102844 	0 	28.9612 	-0.0963927 	0
0.0108558 	0 	29.4213 	-0.0992026 	0
0.0114271 	0 	29.8916 	-0.101541 	0
0.0119985 	0 	30.3734 	-0.103375 	0
0.0125698 	0 	30.7818 	-0.10447 	0
0.0131412 	-4.12354e-15 	31.4022 	-0.105042 	0
0.0137126 	0 	32.0005 	-0.104466 	0
0.0142839 	0 	32.6243 	-0.102972 	0
0.0148553 	0 	33.2481 	-0.100829 	0
0.0154266 	1.37431e-15 	33.8571 	-0.0983649 	0
0.015998 	0 	34.4425 	-0.0957547 	0
0.0165693 	0 	35.0125 	-0.0928798 	0
0.0171407 	0 	35.5858 	-0.089466 	0
0.0177121 	0 	36.1781 	-0.0852697 	0
0.0182834 	0 	36.7958 	-0.0800109 	0
0.0188548 	0 	37.4546 	-0.0726185 	0
0.0194261 	0 	38.1067 	-0.0644847 	0
0.0199975 	0 	38.7452 	-0.0563137 	0
0.0205688 	0 	39.1857 	-0.0525576 	0
0.0211402 	0 	39.5981 	-0.0493343 	0
0.0217116 	0 	39.8293 	-0.0495481 	0
0.0222829 	0 	40.0605 	-0.049762 	0
0.0228543 	0 	40.226 	-0.0503325 	0
0.0234256 	0 	40.3869 	-0.0509278 	0
0.023997 	1.29747e-15 	40.5296 	-0.0514883 	0
0.0285678 	0 	41.0482 	-0.0547965 	0
0.0291392 	0 	41.0577 	-0.0551108 	0
0.0297106 	0 	41.0546 	-0.0554079 	0
0.0302819 	0 	41.0334 	-0.0556803 	0
0.0308533 	0 	41.0123 	-0.0559526 	0
0.0314246 	0 	40.9911 	-0.056225 	0
0.031996 	0 	40.9702 	-0.0564968 	0
0.0325673 	0 	40.9544 	-0.0567594 	0
0.0331387 	0 	40.9386 	-0.057022 	0
0.0337101 	0 	40.9229 	-0.0572845 	0
0.0342814 	0 	40.9071 	-0.0575471 	0
0.0348528 	-1.07095e-15 	40.8926 	-0.0578111 	0
0.0354241 	0 	40.8962 	-0.0580972 	0
0.0359955 	0 	40.8998 	-0.0583832 	0
0.0365668 	0 	40.9035 	-0.0586693 	0
0.0371382 	0 	40.9071 	-0.0589553 	0
0.0377095 	1.05137e-15 	40.9107 	-0.0592414 	0
0.0382809 	9.84727e-16 	40.914 	-0.0595141 	0
0.0422804 	9.11781e-16 	40.9284 	-0.0612269 	0
0.0428518 	-9.1867e-16 	40.9264 	-0.0614585 	0
0.0434231 	9.11781e-16 	40.9245 	-0.0616901 	0
0.0439945 	0 	40.9225 	-0.0619217 	0
0.0445658 	0 	40.9206 	-0.0621533 	0
0.0451372 	0 	40.9186 	-0.0623849 	0
0.0457085 	9.11781e-16 	40.9167 	-0.0626165 	0
0.0468513 	8.34943e-16 	40.9158 	-0.0630547 	0
0.0571357 	0 	40.923 	-0.0665814 	0
0.057707 	0 	40.9237 	-0.0667473 	0
0.0582784 	0 	40.9243 	-0.0669132 	0
0.0588497 	0 	40.925 	-0.0670791 	0
0.0594211 	-6.58847e-16 	40.9257 	-0.067245 	0
0.0599925 	0 	40.9263 	-0.0674109 	0
0.0605638 	0 	40.927 	-0.0675768 	0
0.0611352 	0 	40.9276 	-0.0677427 	0
0.0617065 	0 	40.9283 	-0.0679085 	0
0.0622779 	6.67178e-16 	40.929 	-0.0680744 	0
0.0628492 	0 	40.9296 	-0.0682403 	0
0.0634206 	-5.68316e-16 	40.9304 	-0.0683956 	0
0.063992 	0 	40.9314 	-0.0685341 	0
0.0645633 	0 	40.9324 	-0.0686725 	0
0.0651347 	1.16415e-15 	40.9334 	-0.0688109 	0
0.0754191 	4.54211e-16 	40.9556 	-0.0712687 	0
0.0759905 	-4.61427e-16 	40.9575 	-0.0713863 	0
0.0765618 	0 	40.9594 	-0.0715039 	0
0.0771332 	4.54211e-16 	40.9613 	-0.0716214 	0
0.0777045 	0 	40.9631 	-0.071739 	0
0.0782759 	0 	40.965 	-0.0718566 	0
0.0788472 	0 	40.9669 	-0.0719742 	0
0.0794186 	0 	40.9688 	-0.0720918 	0
0.0799899 	0 	40.9707 	-0.0722093 	0
0.0805613 	-4.40162e-16 	40.9728 	-0.0723271 	0
0.0811327 	0 	40.9753 	-0.0724449 	0
0.081704 	4.17358e-16 	40.9777 	-0.0725628 	0
0.0822754 	0 	40.9802 	-0.0726807 	0
0.0828467 	-4.40162e-16 	40.9826 	-0.0727986 	0
0.0834181 	4.17358e-16 	40.9851 	-0.0729164 	0
0.0839894 	0 	40.9875 	-0.0730343 	0
0.0845608 	0 	40.99 	-0.0731521 	0
0.0851322 	0 	40.9931 	-0.0732635 	0
0.0857035 	-4.31335e-16 	40.9963 	-0.0733749 	0
0.0862749 	3.97834e-16 	40.9994 	-0.0734863 	0
0.0868462 	-4.31335e-16 	41.0026 	-0.0735977 	0
0.0874176 	7.95667e-16 	41.0058 	-0.0737091 	0
0.0919884 	-4.34301e-16 	41.0378 	-0.074573 	0
0.0925598 	4.01202e-16 	41.043 	-0.0746718 	0
0.0931312 	0 	41.0482 	-0.0747706 	0
0.0937025 	0 	41.0535 	-0.0748694 	0
0.0942739 	0 	41.0587 	-0.0749682 	0
0.0948452 	0 	41.065 	-0.0750486 	0
0.0954166 	0 	41.0717 	-0.0751218 	0
0.0959879 	0 	41.0785 	-0.075195 	0
0.0965593 	0 	41.0852 	-0.0752683 	0
0.0971307 	0 	41.0926 	-0.0753219 	0
0.097702 	0 	41.1011 	-0.0753413 	0
0.0982734 	0 	41.1097 	-0.0753606 	0
0.0988447 	-3.65637e-16 	41.1183 	-0.07538 	0
0.0994161 	4.6517e-16 	41.1281 	-0.0753744 	0
0.0999874 	0 	41.139 	-0.0753494 	0
0.100559 	0 	41.1499 	-0.0753245 	0
0.10113 	4.78476e-16 	41.1613 	-0.0752786 	0
0.102844 	4.75126e-16 	41.1865 	-0.0748614 	0
0.104558 	0 	40.923 	-0.0714363 	0
0.10513 	4.74863e-16 	40.6722 	-0.0682863 	0
0.105701 	0 	40.2079 	-0.0624151 	0
0.106272 	0 	39.6234 	-0.0550099 	0
0.106844 	0 	38.9064 	-0.0471755 	0
0.107415 	0 	38.1349 	-0.0392375 	0
0.107986 	0 	37.2987 	-0.0325265 	0
0.108558 	0 	36.4433 	-0.026358 	0
0.109129 	0 	35.5678 	-0.0209074 	0
0.109701 	0 	34.6717 	-0.0163624 	0
0.110272 	1.47558e-15 	33.7378 	-0.0126222 	0
0.110843 	0 	32.7288 	-0.00951657 	0
0.111415 	2.09696e-16 	31.5922 	-0.00689245 	0
0.111986 	1.59994e-15 	30.1948 	-0.004711 	0
0.112557 	1.78653e-16 	28.2827 	-0.00286324 	0
0.113129 	0 	24.9655 	-0.00127394 	0
0.1137 	-0.0539276 	1.39589 	-1.69168e-06 	0
